"Global_Index", "x_coord", "y_coord", "Pressure", "Pressure_Coefficient", "Skin_Friction_Coefficient_X", "Skin_Friction_Coefficient_Y", "Heat_Flux"
24, 0.000000000000000e+00, 2.220446049250313e-16, 1.150936121873328e+05, 1.993811933823219e-01, 1.508693552167956e-02, 0.000000000000000e+00, -1.553245531187013e+02
25, 4.011887597850000e-03, 2.220446049250313e-16, 1.150611291518085e+05, 1.892452275732905e-01, 5.211291670625375e-03, 0.000000000000000e+00, -2.095397186203795e+01
26, 8.056205200680001e-03, 2.220446049250313e-16, 1.150729113032491e+05, 1.929217153839423e-01, 4.963440295705284e-03, 0.000000000000000e+00, -1.365092754648141e+01
27, 1.213422760060000e-02, 2.220446049250313e-16, 1.150717204874569e+05, 1.925501347123948e-01, 5.003521231722414e-03, 0.000000000000000e+00, -1.386814653538147e+01
28, 1.624726554020000e-02, 2.220446049250313e-16, 1.150715376705778e+05, 1.924930887619277e-01, 4.934023955695245e-03, 0.000000000000000e+00, -1.348337046633304e+01
29, 2.039666755470000e-02, 2.220446049250313e-16, 1.150708302908688e+05, 1.922723588815589e-01, 4.815269606216710e-03, 0.000000000000000e+00, -1.284108677728052e+01
30, 2.458382190520000e-02, 2.220446049250313e-16, 1.150701994683045e+05, 1.920755177969707e-01, 4.691374095394636e-03, 0.000000000000000e+00, -1.218825263208781e+01
31, 2.881015861120000e-02, 2.220446049250313e-16, 1.150696265772664e+05, 1.918967535934357e-01, 4.579397332923905e-03, 0.000000000000000e+00, -1.161299042339500e+01
32, 3.307715158840000e-02, 2.220446049250313e-16, 1.150691268692312e+05, 1.917408253226406e-01, 4.482063515159505e-03, 0.000000000000000e+00, -1.112425253351399e+01
33, 3.738632089750000e-02, 2.220446049250313e-16, 1.150686822206866e+05, 1.916020777464750e-01, 4.397478987399966e-03, 0.000000000000000e+00, -1.070804251415825e+01
34, 4.173923511390000e-02, 2.220446049250313e-16, 1.150682776639196e+05, 1.914758403585226e-01, 4.322989821116153e-03, 0.000000000000000e+00, -1.034806490545910e+01
35, 4.613751382460000e-02, 2.220446049250313e-16, 1.150679032733778e+05, 1.913590160017364e-01, 4.256288156987353e-03, 0.000000000000000e+00, -1.003093196005244e+01
36, 5.058283026210000e-02, 2.220446049250313e-16, 1.150675542231700e+05, 1.912500988111440e-01, 4.195683296477364e-03, 0.000000000000000e+00, -9.747053651671518e+00
37, 5.507691408390000e-02, 2.220446049250313e-16, 1.150672258714343e+05, 1.911476403458769e-01, 4.140085134357486e-03, 0.000000000000000e+00, -9.490206406175128e+00
38, 5.962155430870000e-02, 2.220446049250313e-16, 1.150669178631209e+05, 1.910515298166960e-01, 4.088773490090506e-03, 0.000000000000000e+00, -9.256205012741876e+00
39, 6.421860241959999e-02, 2.220446049250313e-16, 1.150666273054319e+05, 1.909608645585553e-01, 4.041174102729686e-03, 0.000000000000000e+00, -9.041746688653205e+00
40, 6.886997564640000e-02, 2.220446049250313e-16, 1.150663514319630e+05, 1.908747813460867e-01, 3.996788931026725e-03, 0.000000000000000e+00, -8.844032486893500e+00
41, 7.357766043930000e-02, 2.220446049250313e-16, 1.150660903169771e+05, 1.907933033522398e-01, 3.955242215485269e-03, 0.000000000000000e+00, -8.660943191339724e+00
42, 7.834371614890000e-02, 2.220446049250313e-16, 1.150658404159545e+05, 1.907153245494450e-01, 3.916222726186003e-03, 0.000000000000000e+00, -8.490736911525893e+00
43, 8.317027892560000e-02, 2.220446049250313e-16, 1.150656036427149e+05, 1.906414421236669e-01, 3.879450225696663e-03, 0.000000000000000e+00, -8.331877788146937e+00
44, 8.805956585650000e-02, 2.220446049250313e-16, 1.150653760131366e+05, 1.905704128745427e-01, 3.844675857965756e-03, 0.000000000000000e+00, -8.183032311875989e+00
45, 9.301387935570000e-02, 2.220446049250313e-16, 1.150651551921832e+05, 1.905015081802303e-01, 3.811639880278418e-03, 0.000000000000000e+00, -8.042871522538057e+00
46, 9.803561182770000e-02, 2.220446049250313e-16, 1.150649451005729e+05, 1.904359514567045e-01, 3.780093167796241e-03, 0.000000000000000e+00, -7.910155495107128e+00
47, 1.031272506240000e-01, 2.220446049250313e-16, 1.150647408382033e+05, 1.903722136821676e-01, 3.749948861009900e-03, 0.000000000000000e+00, -7.784372650743876e+00
48, 1.082913833170000e-01, 2.220446049250313e-16, 1.150645431240554e+05, 1.903105192065746e-01, 3.721113809758919e-03, 0.000000000000000e+00, -7.664996980306224e+00
49, 1.135307033110000e-01, 2.220446049250313e-16, 1.150643542582831e+05, 1.902515857669992e-01, 3.693483976970002e-03, 0.000000000000000e+00, -7.551477268065153e+00
50, 1.188480158220000e-01, 2.220446049250313e-16, 1.150641689902016e+05, 1.901937749463864e-01, 3.666954094698152e-03, 0.000000000000000e+00, -7.443274188894164e+00
51, 1.242462442510000e-01, 2.220446049250313e-16, 1.150639877169891e+05, 1.901372106797068e-01, 3.641423399090826e-03, 0.000000000000000e+00, -7.339884616378572e+00
52, 1.297284369870000e-01, 2.220446049250313e-16, 1.150638150418431e+05, 1.900833293429578e-01, 3.616811213418615e-03, 0.000000000000000e+00, -7.240900052194434e+00
53, 1.352977746630000e-01, 2.220446049250313e-16, 1.150636456575539e+05, 1.900304748810414e-01, 3.593047985310868e-03, 0.000000000000000e+00, -7.145967699693466e+00
54, 1.409575779210000e-01, 2.220446049250313e-16, 1.150634770855574e+05, 1.899778738859225e-01, 3.570061138077953e-03, 0.000000000000000e+00, -7.054733946323903e+00
55, 1.467113157020000e-01, 2.220446049250313e-16, 1.150633147527801e+05, 1.899272197689714e-01, 3.547788707049184e-03, 0.000000000000000e+00, -6.966895628068675e+00
56, 1.525626141330000e-01, 2.220446049250313e-16, 1.150631574580808e+05, 1.898781377275924e-01, 3.526183553422962e-03, 0.000000000000000e+00, -6.882215062710316e+00
57, 1.585152660350000e-01, 2.220446049250313e-16, 1.150630010895843e+05, 1.898293446973651e-01, 3.505197504799302e-03, 0.000000000000000e+00, -6.800457457451228e+00
58, 1.645732411200000e-01, 2.220446049250313e-16, 1.150628461614041e+05, 1.897810011016475e-01, 3.484779584753918e-03, 0.000000000000000e+00, -6.721382838714314e+00
59, 1.707406969350000e-01, 2.220446049250313e-16, 1.150626970767836e+05, 1.897344809229690e-01, 3.464891066340534e-03, 0.000000000000000e+00, -6.644803609522225e+00
60, 1.770219906140000e-01, 2.220446049250313e-16, 1.150625517663661e+05, 1.896891384419220e-01, 3.445503390425295e-03, 0.000000000000000e+00, -6.570575549964992e+00
61, 1.834216915030000e-01, 2.220446049250313e-16, 1.150624058118545e+05, 1.896435949785276e-01, 3.426580350568216e-03, 0.000000000000000e+00, -6.498529110358252e+00
62, 1.899445947530000e-01, 2.220446049250313e-16, 1.150622609643413e+05, 1.895983969415178e-01, 3.408082194805518e-03, 0.000000000000000e+00, -6.428484866635872e+00
63, 1.965957359540000e-01, 2.220446049250313e-16, 1.150621210417753e+05, 1.895547356789021e-01, 3.389982124007987e-03, 0.000000000000000e+00, -6.360315764589596e+00
64, 2.033804069020000e-01, 2.220446049250313e-16, 1.150619848373931e+05, 1.895122346337027e-01, 3.372262320334842e-03, 0.000000000000000e+00, -6.293931268544410e+00
65, 2.103041726230000e-01, 2.220446049250313e-16, 1.150618475847398e+05, 1.894694064872970e-01, 3.354896643824026e-03, 0.000000000000000e+00, -6.229211873917390e+00
66, 2.173728897500000e-01, 2.220446049250313e-16, 1.150617102082695e+05, 1.894265397051823e-01, 3.337853561435206e-03, 0.000000000000000e+00, -6.166020456567709e+00
67, 2.245927263960000e-01, 2.220446049250313e-16, 1.150615762867756e+05, 1.893847510095977e-01, 3.321111884591075e-03, 0.000000000000000e+00, -6.104260623815660e+00
68, 2.319701836540000e-01, 2.220446049250313e-16, 1.150614470845422e+05, 1.893444349061654e-01, 3.304661077986337e-03, 0.000000000000000e+00, -6.043877030381600e+00
69, 2.395121189030000e-01, 2.220446049250313e-16, 1.150613176121764e+05, 1.893040345109620e-01, 3.288484736152617e-03, 0.000000000000000e+00, -5.984793988918399e+00
70, 2.472257710730000e-01, 2.220446049250313e-16, 1.150611860693533e+05, 1.892629880528106e-01, 3.272556054566218e-03, 0.000000000000000e+00, -5.926899518522622e+00
71, 2.551187880890000e-01, 2.220446049250313e-16, 1.150610563693228e+05, 1.892225166174171e-01, 3.256854324842265e-03, 0.000000000000000e+00, -5.870105710606437e+00
72, 2.631992566980000e-01, 2.220446049250313e-16, 1.150609315604012e+05, 1.891835713974764e-01, 3.241371957684198e-03, 0.000000000000000e+00, -5.814373453389899e+00
73, 2.714757349350000e-01, 2.220446049250313e-16, 1.150608083311110e+05, 1.891451190837742e-01, 3.226100778604858e-03, 0.000000000000000e+00, -5.759662218634338e+00
74, 2.799572875080000e-01, 2.220446049250313e-16, 1.150606822665500e+05, 1.891057820557141e-01, 3.211020554314563e-03, 0.000000000000000e+00, -5.705889277553604e+00
75, 2.886535243940000e-01, 2.220446049250313e-16, 1.150605562101321e+05, 1.890664475686231e-01, 3.196110965899302e-03, 0.000000000000000e+00, -5.652973071763013e+00
76, 2.975746430190000e-01, 2.220446049250313e-16, 1.150604327279682e+05, 1.890279163485201e-01, 3.181361658227752e-03, 0.000000000000000e+00, -5.600868648318440e+00
77, 3.067314743950000e-01, 2.220446049250313e-16, 1.150603134240654e+05, 1.889906889077869e-01, 3.166768155872423e-03, 0.000000000000000e+00, -5.549552441480063e+00
78, 3.161355336610000e-01, 2.220446049250313e-16, 1.150601934228505e+05, 1.889532438786740e-01, 3.152320451959653e-03, 0.000000000000000e+00, -5.498981881383666e+00
79, 3.257990755320000e-01, 2.220446049250313e-16, 1.150600704952213e+05, 1.889148856948748e-01, 3.137999780010164e-03, 0.000000000000000e+00, -5.449084722005288e+00
80, 3.357351552200000e-01, 2.220446049250313e-16, 1.150599486480259e+05, 1.888768646483001e-01, 3.123792510072949e-03, 0.000000000000000e+00, -5.399807727751107e+00
81, 3.459576954530000e-01, 2.220446049250313e-16, 1.150598302362802e+05, 1.888399155951758e-01, 3.109693670207251e-03, 0.000000000000000e+00, -5.351128459769897e+00
82, 3.564815603450000e-01, 2.220446049250313e-16, 1.150597138100707e+05, 1.888035861062372e-01, 3.095697213492754e-03, 0.000000000000000e+00, -5.303021050074368e+00
83, 3.673226369200000e-01, 2.220446049250313e-16, 1.150595950009934e+05, 1.887665130702462e-01, 3.081789315763750e-03, 0.000000000000000e+00, -5.255433480010192e+00
84, 3.784979252510000e-01, 2.220446049250313e-16, 1.150594747040762e+05, 1.887289757705631e-01, 3.067954468913978e-03, 0.000000000000000e+00, -5.208308953007040e+00
85, 3.900256382880000e-01, 2.220446049250313e-16, 1.150593557711389e+05, 1.886918640854271e-01, 3.054183526132182e-03, 0.000000000000000e+00, -5.161613210540795e+00
86, 4.019253126140000e-01, 2.220446049250313e-16, 1.150592408204948e+05, 1.886559950301073e-01, 3.040473041839318e-03, 0.000000000000000e+00, -5.115331718400870e+00
87, 4.142179315450000e-01, 2.220446049250313e-16, 1.150591259329610e+05, 1.886201456676340e-01, 3.026817278827483e-03, 0.000000000000000e+00, -5.069442390095403e+00
88, 4.269260622260000e-01, 2.220446049250313e-16, 1.150590074905050e+05, 1.885831870316912e-01, 3.013202857303976e-03, 0.000000000000000e+00, -5.023898098542618e+00
89, 4.400740085990000e-01, 2.220446049250313e-16, 1.150588890369072e+05, 1.885462249190917e-01, 2.999613259314732e-03, 0.000000000000000e+00, -4.978642173025073e+00
90, 4.536879824320000e-01, 2.220446049250313e-16, 1.150587729022215e+05, 1.885099863969027e-01, 2.986019388751076e-03, 0.000000000000000e+00, -4.933576898690342e+00
91, 4.677962949600000e-01, 2.220446049250313e-16, 1.150586594980476e+05, 1.884745999002026e-01, 2.972406851105108e-03, 0.000000000000000e+00, -4.888654820733533e+00
92, 4.824295720830000e-01, 2.220446049250313e-16, 1.150585444827709e+05, 1.884387106770092e-01, 2.958794205275996e-03, 0.000000000000000e+00, -4.843938213436964e+00
93, 4.976209965680000e-01, 2.220446049250313e-16, 1.150584271194256e+05, 1.884020887654086e-01, 2.945176620576825e-03, 0.000000000000000e+00, -4.799411194126385e+00
94, 5.134065813120000e-01, 2.220446049250313e-16, 1.150583109936798e+05, 1.883658530328045e-01, 2.931544397729141e-03, 0.000000000000000e+00, -4.755042589297841e+00
95, 5.298254783930000e-01, 2.220446049250313e-16, 1.150581985161659e+05, 1.883307556899405e-01, 2.917891436118687e-03, 0.000000000000000e+00, -4.710813320444817e+00
96, 5.469203295140000e-01, 2.220446049250313e-16, 1.150580860117526e+05, 1.882956499534244e-01, 2.904209819009493e-03, 0.000000000000000e+00, -4.666698804447420e+00
97, 5.647376644470000e-01, 2.220446049250313e-16, 1.150579702910964e+05, 1.882595406244940e-01, 2.890486367427921e-03, 0.000000000000000e+00, -4.622658162341021e+00
98, 5.833283553420000e-01, 2.220446049250313e-16, 1.150578549524628e+05, 1.882235505014083e-01, 2.876709340286250e-03, 0.000000000000000e+00, -4.578655947327046e+00
99, 6.027481362320000e-01, 2.220446049250313e-16, 1.150577426105270e+05, 1.881884954641466e-01, 2.862870941516791e-03, 0.000000000000000e+00, -4.534669910682184e+00
100, 6.230581989500000e-01, 2.220446049250313e-16, 1.150576314550416e+05, 1.881538106454228e-01, 2.848962314391607e-03, 0.000000000000000e+00, -4.490674864332888e+00
101, 6.443258788700000e-01, 2.220446049250313e-16, 1.150575179666765e+05, 1.881183978778023e-01, 2.834970545612004e-03, 0.000000000000000e+00, -4.446633498824077e+00
102, 6.666254466970000e-01, 2.220446049250313e-16, 1.150574040952523e+05, 1.880828655809168e-01, 2.820882060599892e-03, 0.000000000000000e+00, -4.402507337591516e+00
103, 6.900390259370000e-01, 2.220446049250313e-16, 1.150572932871053e+05, 1.880482891451964e-01, 2.806686147555254e-03, 0.000000000000000e+00, -4.358267628198879e+00
104, 7.146576599530000e-01, 2.220446049250313e-16, 1.150571839925883e+05, 1.880141850207052e-01, 2.792371950310465e-03, 0.000000000000000e+00, -4.313885822823110e+00
105, 7.405825578610000e-01, 2.220446049250313e-16, 1.150570728874289e+05, 1.879795159056099e-01, 2.777924971997603e-03, 0.000000000000000e+00, -4.269322926250896e+00
106, 7.679265552350000e-01, 2.220446049250313e-16, 1.150569620166448e+05, 1.879449199247268e-01, 2.763329424268160e-03, 0.000000000000000e+00, -4.224537089487909e+00
107, 7.968158341210000e-01, 2.220446049250313e-16, 1.150568551530126e+05, 1.879115743304702e-01, 2.748571157689870e-03, 0.000000000000000e+00, -4.179492455739823e+00
108, 8.273919576770000e-01, 2.220446049250313e-16, 1.150567489195057e+05, 1.878784253597570e-01, 2.733635494372586e-03, 0.000000000000000e+00, -4.134152511266929e+00
109, 8.598142887360000e-01, 2.220446049250313e-16, 1.150566404946756e+05, 1.878445926112760e-01, 2.718505618348892e-03, 0.000000000000000e+00, -4.088475462144639e+00
110, 8.942628795040000e-01, 2.220446049250313e-16, 1.150565343044283e+05, 1.878114571392158e-01, 2.703167454374307e-03, 0.000000000000000e+00, -4.042429026772332e+00
111, 9.309419431120000e-01, 2.220446049250313e-16, 1.150564336384028e+05, 1.877800454384110e-01, 2.687608629653857e-03, 0.000000000000000e+00, -3.995986912678302e+00
112, 9.700840484090000e-01, 2.220446049250313e-16, 1.150563387008597e+05, 1.877504212461130e-01, 2.671806994318548e-03, 0.000000000000000e+00, -3.949094947330269e+00
113, 1.011955220140000e+00, 2.220446049250313e-16, 1.150562493985402e+05, 1.877225554619397e-01, 2.655710546072708e-03, 0.000000000000000e+00, -3.901613229214332e+00
114, 1.054913688830000e+00, 2.220446049250313e-16, 1.150561623246315e+05, 1.876953850282914e-01, 2.639931881207685e-03, 0.000000000000000e+00, -3.855347941703579e+00
115, 1.097872157520000e+00, 2.220446049250313e-16, 1.150560786795966e+05, 1.876692845361504e-01, 2.624827036971190e-03, 0.000000000000000e+00, -3.811317167337467e+00
116, 1.140830626210000e+00, 2.220446049250313e-16, 1.150560001640192e+05, 1.876447846335020e-01, 2.610360097799455e-03, 0.000000000000000e+00, -3.769383372993524e+00
117, 1.183789094900000e+00, 2.220446049250313e-16, 1.150559304884194e+05, 1.876230431464251e-01, 2.596493794271487e-03, 0.000000000000000e+00, -3.729408635483689e+00
118, 1.226747563590000e+00, 2.220446049250313e-16, 1.150558691944867e+05, 1.876039170642600e-01, 2.583192960705238e-03, 0.000000000000000e+00, -3.691264584621848e+00
119, 1.269706032280000e+00, 2.220446049250313e-16, 1.150558125462619e+05, 1.875862406229913e-01, 2.570423637429758e-03, 0.000000000000000e+00, -3.654829499454156e+00
120, 1.312664500970000e+00, 2.220446049250313e-16, 1.150557601472264e+05, 1.875698900934447e-01, 2.558150994379804e-03, 0.000000000000000e+00, -3.619982177263742e+00
121, 1.355622969660000e+00, 2.220446049250313e-16, 1.150557144934699e+05, 1.875556443523168e-01, 2.546341636185295e-03, 0.000000000000000e+00, -3.586608162334374e+00
122, 1.398581438350000e+00, 2.220446049250313e-16, 1.150556760850974e+05, 1.875436594517653e-01, 2.534967518558679e-03, 0.000000000000000e+00, -3.554610466502547e+00
123, 1.441539907040000e+00, 2.220446049250313e-16, 1.150556413970548e+05, 1.875328354382926e-01, 2.524002832849352e-03, 0.000000000000000e+00, -3.523900489636482e+00
124, 1.484498375720000e+00, 2.220446049250313e-16, 1.150556089469407e+05, 1.875227097452617e-01, 2.513416204776727e-03, 0.000000000000000e+00, -3.494375973363428e+00
125, 1.527456844410000e+00, 2.220446049250313e-16, 1.150555812112984e+05, 1.875140551500822e-01, 2.503181646102171e-03, 0.000000000000000e+00, -3.465951580464428e+00
126, 1.570415313100000e+00, 2.220446049250313e-16, 1.150555592626257e+05, 1.875072063137015e-01, 2.493282997944790e-03, 0.000000000000000e+00, -3.438570728915927e+00
127, 1.613373781790000e+00, 2.220446049250313e-16, 1.150555423935619e+05, 1.875019425121263e-01, 2.483703460048337e-03, 0.000000000000000e+00, -3.412176089459265e+00
128, 1.656332250480000e+00, 2.220446049250313e-16, 1.150555277095058e+05, 1.874973605175832e-01, 2.474428873254587e-03, 0.000000000000000e+00, -3.386718695807048e+00
129, 1.699290719170000e+00, 2.220446049250313e-16, 1.150555161323319e+05, 1.874937479907285e-01, 2.465448062366197e-03, 0.000000000000000e+00, -3.362158621106091e+00
130, 1.742249187860000e+00, 2.220446049250313e-16, 1.150555124101119e+05, 1.874925865138547e-01, 2.456749199785835e-03, 0.000000000000000e+00, -3.338454875384026e+00
131, 1.785207656550000e+00, 2.220446049250313e-16, 1.150555164548065e+05, 1.874938486152871e-01, 2.448299065637905e-03, 0.000000000000000e+00, -3.315509329772139e+00
132, 1.828166125240000e+00, 2.220446049250313e-16, 1.150555393953143e+05, 1.875010069426751e-01, 2.440032854547142e-03, 0.000000000000000e+00, -3.293139779326268e+00
133, 1.871124593930000e+00, 2.220446049250313e-16, 1.150555136374206e+05, 1.874929694817246e-01, 2.431810074383081e-03, 0.000000000000000e+00, -3.270964360000561e+00
134, 1.914083062620000e+00, 2.220446049250313e-16, 1.150556302916133e+05, 1.875293701102142e-01, 2.423802838024643e-03, 0.000000000000000e+00, -3.249438036609296e+00
135, 1.957041531310000e+00, 2.220446049250313e-16, 1.150547153229852e+05, 1.872438644429825e-01, 2.415065279348550e-03, 0.000000000000000e+00, -3.226053981124885e+00
136, 2.000000000000000e+00, 2.220446049250313e-16, 1.150639454985807e+05, 1.901240369003120e-01, 2.411812269113306e-03, 0.000000000000000e+00, -3.217473938516904e+00
