"Global_Index", "x_coord", "y_coord", "Pressure", "Pressure_Coefficient", "Skin_Friction_Coefficient_X", "Skin_Friction_Coefficient_Y"
24, 0.000000000000000e+00, 2.220446049250313e-16, 1.150936122146349e+05, 1.993812019016349e-01, 1.508730116709673e-02, 0.000000000000000e+00
25, 4.011887597850000e-03, 2.220446049250313e-16, 1.150611357238808e+05, 1.892472783144969e-01, 5.212480258581714e-03, 0.000000000000000e+00
26, 8.056205200680001e-03, 2.220446049250313e-16, 1.150729163754651e+05, 1.929232981118821e-01, 4.964789393346693e-03, 0.000000000000000e+00
27, 1.213422760060000e-02, 2.220446049250313e-16, 1.150717223530692e+05, 1.925507168557115e-01, 5.004553762947217e-03, 0.000000000000000e+00
28, 1.624726554020000e-02, 2.220446049250313e-16, 1.150715374641108e+05, 1.924930243362195e-01, 4.934699108077992e-03, 0.000000000000000e+00
29, 2.039666755470000e-02, 2.220446049250313e-16, 1.150708293179679e+05, 1.922720552987996e-01, 4.815713411057491e-03, 0.000000000000000e+00
30, 2.458382190520000e-02, 2.220446049250313e-16, 1.150701984132942e+05, 1.920751885928922e-01, 4.691699646528221e-03, 0.000000000000000e+00
31, 2.881015861120000e-02, 2.220446049250313e-16, 1.150696256646717e+05, 1.918964688285181e-01, 4.579664889815176e-03, 0.000000000000000e+00
32, 3.307715158840000e-02, 2.220446049250313e-16, 1.150691261214979e+05, 1.917405920008630e-01, 4.482298765355578e-03, 0.000000000000000e+00
33, 3.738632089750000e-02, 2.220446049250313e-16, 1.150686816052045e+05, 1.916018856922318e-01, 4.397691649663191e-03, 0.000000000000000e+00
34, 4.173923511390000e-02, 2.220446049250313e-16, 1.150682771393497e+05, 1.914756766723867e-01, 4.323183769687848e-03, 0.000000000000000e+00
35, 4.613751382460000e-02, 2.220446049250313e-16, 1.150679028000048e+05, 1.913588682910209e-01, 4.256465738955681e-03, 0.000000000000000e+00
36, 5.058283026210000e-02, 2.220446049250313e-16, 1.150675537909198e+05, 1.912499639323252e-01, 4.195846530575060e-03, 0.000000000000000e+00
37, 5.507691408390000e-02, 2.220446049250313e-16, 1.150672254701517e+05, 1.911475151301482e-01, 4.140235859979152e-03, 0.000000000000000e+00
38, 5.962155430870000e-02, 2.220446049250313e-16, 1.150669174915094e+05, 1.910514138595345e-01, 4.088913403168690e-03, 0.000000000000000e+00
39, 6.421860241959999e-02, 2.220446049250313e-16, 1.150666269588594e+05, 1.909607564145230e-01, 4.041304716535242e-03, 0.000000000000000e+00
40, 6.886997564640000e-02, 2.220446049250313e-16, 1.150663511090567e+05, 1.908746805868264e-01, 3.996911343844536e-03, 0.000000000000000e+00
41, 7.357766043930000e-02, 2.220446049250313e-16, 1.150660900105207e+05, 1.907932077259516e-01, 3.955357245617873e-03, 0.000000000000000e+00
42, 7.834371614890000e-02, 2.220446049250313e-16, 1.150658401252461e+05, 1.907152338371824e-01, 3.916331111597489e-03, 0.000000000000000e+00
43, 8.317027892560000e-02, 2.220446049250313e-16, 1.150656033622202e+05, 1.906413545984559e-01, 3.879552586722682e-03, 0.000000000000000e+00
44, 8.805956585650000e-02, 2.220446049250313e-16, 1.150653757315062e+05, 1.905703249949388e-01, 3.844772697269894e-03, 0.000000000000000e+00
45, 9.301387935570000e-02, 2.220446049250313e-16, 1.150651549317579e+05, 1.905014269174422e-01, 3.811731699273973e-03, 0.000000000000000e+00
46, 9.803561182770000e-02, 2.220446049250313e-16, 1.150649448451418e+05, 1.904358717522921e-01, 3.780180513563057e-03, 0.000000000000000e+00
47, 1.031272506240000e-01, 2.220446049250313e-16, 1.150647405773048e+05, 1.903721322717276e-01, 3.750031900610957e-03, 0.000000000000000e+00
48, 1.082913833170000e-01, 2.220446049250313e-16, 1.150645428813269e+05, 1.903104434658655e-01, 3.721192766106493e-03, 0.000000000000000e+00
49, 1.135307033110000e-01, 2.220446049250313e-16, 1.150643540174709e+05, 1.902515106242766e-01, 3.693559148369076e-03, 0.000000000000000e+00
50, 1.188480158220000e-01, 2.220446049250313e-16, 1.150641687439375e+05, 1.901936981024584e-01, 3.667025779100023e-03, 0.000000000000000e+00
51, 1.242462442510000e-01, 2.220446049250313e-16, 1.150639874926005e+05, 1.901371406617739e-01, 3.641491925222778e-03, 0.000000000000000e+00
52, 1.297284369870000e-01, 2.220446049250313e-16, 1.150638148203712e+05, 1.900832602351342e-01, 3.616876851759324e-03, 0.000000000000000e+00
53, 1.352977746630000e-01, 2.220446049250313e-16, 1.150636454250271e+05, 1.900304023236739e-01, 3.593110902506036e-03, 0.000000000000000e+00
54, 1.409575779210000e-01, 2.220446049250313e-16, 1.150634768629268e+05, 1.899778044165680e-01, 3.570121491634050e-03, 0.000000000000000e+00
55, 1.467113157020000e-01, 2.220446049250313e-16, 1.150633145483634e+05, 1.899271559830564e-01, 3.547846669435804e-03, 0.000000000000000e+00
56, 1.525626141330000e-01, 2.220446049250313e-16, 1.150631572547825e+05, 1.898780742906577e-01, 3.526239274468549e-03, 0.000000000000000e+00
57, 1.585152660350000e-01, 2.220446049250313e-16, 1.150630008789506e+05, 1.898292789715052e-01, 3.505251091751156e-03, 0.000000000000000e+00
58, 1.645732411200000e-01, 2.220446049250313e-16, 1.150628459581881e+05, 1.897809376903726e-01, 3.484831134698948e-03, 0.000000000000000e+00
59, 1.707406969350000e-01, 2.220446049250313e-16, 1.150626968917633e+05, 1.897344231894758e-01, 3.464940714232015e-03, 0.000000000000000e+00
60, 1.770219906140000e-01, 2.220446049250313e-16, 1.150625515841049e+05, 1.896890815693527e-01, 3.445551263569238e-03, 0.000000000000000e+00
61, 1.834216915030000e-01, 2.220446049250313e-16, 1.150624056179547e+05, 1.896435344742709e-01, 3.426626512662922e-03, 0.000000000000000e+00
62, 1.899445947530000e-01, 2.220446049250313e-16, 1.150622607763717e+05, 1.895983382877258e-01, 3.408126726938522e-03, 0.000000000000000e+00
63, 1.965957359540000e-01, 2.220446049250313e-16, 1.150621208745021e+05, 1.895546834831717e-01, 3.390025184148980e-03, 0.000000000000000e+00
64, 2.033804069020000e-01, 2.220446049250313e-16, 1.150619846747305e+05, 1.895121838766536e-01, 3.372304049578246e-03, 0.000000000000000e+00
65, 2.103041726230000e-01, 2.220446049250313e-16, 1.150618474113603e+05, 1.894693523861769e-01, 3.354937086935060e-03, 0.000000000000000e+00
66, 2.173728897500000e-01, 2.220446049250313e-16, 1.150617100398473e+05, 1.894264871509452e-01, 3.337892751888457e-03, 0.000000000000000e+00
67, 2.245927263960000e-01, 2.220446049250313e-16, 1.150615761379839e+05, 1.893847045808296e-01, 3.321149923196255e-03, 0.000000000000000e+00
68, 2.319701836540000e-01, 2.220446049250313e-16, 1.150614469412141e+05, 1.893443901822534e-01, 3.304698066382250e-03, 0.000000000000000e+00
69, 2.395121189030000e-01, 2.220446049250313e-16, 1.150613174563180e+05, 1.893039858770821e-01, 3.288520698507672e-03, 0.000000000000000e+00
70, 2.472257710730000e-01, 2.220446049250313e-16, 1.150611859145051e+05, 1.892629397341912e-01, 3.272591001180592e-03, 0.000000000000000e+00
71, 2.551187880890000e-01, 2.220446049250313e-16, 1.150610562243882e+05, 1.892224713921824e-01, 3.256888311313906e-03, 0.000000000000000e+00
72, 2.631992566980000e-01, 2.220446049250313e-16, 1.150609314351778e+05, 1.891835323229346e-01, 3.241405064491294e-03, 0.000000000000000e+00
73, 2.714757349350000e-01, 2.220446049250313e-16, 1.150608082058950e+05, 1.891450800115482e-01, 3.226133048334657e-03, 0.000000000000000e+00
74, 2.799572875080000e-01, 2.220446049250313e-16, 1.150606821314509e+05, 1.891057398995528e-01, 3.211051978529258e-03, 0.000000000000000e+00
75, 2.886535243940000e-01, 2.220446049250313e-16, 1.150605560814008e+05, 1.890664073994536e-01, 3.196141559358143e-03, 0.000000000000000e+00
76, 2.975746430190000e-01, 2.220446049250313e-16, 1.150604326161024e+05, 1.890278814420432e-01, 3.181391476904830e-03, 0.000000000000000e+00
77, 3.067314743950000e-01, 2.220446049250313e-16, 1.150603133126657e+05, 1.889906541467506e-01, 3.166797233187349e-03, 0.000000000000000e+00
78, 3.161355336610000e-01, 2.220446049250313e-16, 1.150601932982190e+05, 1.889532049888095e-01, 3.152348784463911e-03, 0.000000000000000e+00
79, 3.257990755320000e-01, 2.220446049250313e-16, 1.150600703730115e+05, 1.889148475606975e-01, 3.138027395970380e-03, 0.000000000000000e+00
80, 3.357351552200000e-01, 2.220446049250313e-16, 1.150599485341414e+05, 1.888768291119288e-01, 3.123819478644172e-03, 0.000000000000000e+00
81, 3.459576954530000e-01, 2.220446049250313e-16, 1.150598301399025e+05, 1.888398855215720e-01, 3.109720057672750e-03, 0.000000000000000e+00
82, 3.564815603450000e-01, 2.220446049250313e-16, 1.150597137140645e+05, 1.888035561485953e-01, 3.095723038064127e-03, 0.000000000000000e+00
83, 3.673226369200000e-01, 2.220446049250313e-16, 1.150595948937291e+05, 1.887664795996488e-01, 3.081814543464663e-03, 0.000000000000000e+00
84, 3.784979252510000e-01, 2.220446049250313e-16, 1.150594745988853e+05, 1.887289429469153e-01, 3.067979080008630e-03, 0.000000000000000e+00
85, 3.900256382880000e-01, 2.220446049250313e-16, 1.150593556730892e+05, 1.886918334901397e-01, 3.054207528512265e-03, 0.000000000000000e+00
86, 4.019253126140000e-01, 2.220446049250313e-16, 1.150592407339397e+05, 1.886559680215674e-01, 3.040496447604897e-03, 0.000000000000000e+00
87, 4.142179315450000e-01, 2.220446049250313e-16, 1.150591258442872e+05, 1.886201179979865e-01, 3.026840096048992e-03, 0.000000000000000e+00
88, 4.269260622260000e-01, 2.220446049250313e-16, 1.150590073957135e+05, 1.885831574530804e-01, 3.013225092666514e-03, 0.000000000000000e+00
89, 4.400740085990000e-01, 2.220446049250313e-16, 1.150588889474427e+05, 1.885461970026766e-01, 2.999634947534311e-03, 0.000000000000000e+00
90, 4.536879824320000e-01, 2.220446049250313e-16, 1.150587728228441e+05, 1.885099616280752e-01, 2.986040603920475e-03, 0.000000000000000e+00
91, 4.677962949600000e-01, 2.220446049250313e-16, 1.150586594175879e+05, 1.884745747936697e-01, 2.972427582775484e-03, 0.000000000000000e+00
92, 4.824295720830000e-01, 2.220446049250313e-16, 1.150585443942285e+05, 1.884386830483284e-01, 2.958814464458416e-03, 0.000000000000000e+00
93, 4.976209965680000e-01, 2.220446049250313e-16, 1.150584270339812e+05, 1.884020621034333e-01, 2.945196445169467e-03, 0.000000000000000e+00
94, 5.134065813120000e-01, 2.220446049250313e-16, 1.150583109159510e+05, 1.883658287784272e-01, 2.931563821085977e-03, 0.000000000000000e+00
95, 5.298254783930000e-01, 2.220446049250313e-16, 1.150581984490432e+05, 1.883307347450744e-01, 2.917910464681059e-03, 0.000000000000000e+00
96, 5.469203295140000e-01, 2.220446049250313e-16, 1.150580859425390e+05, 1.882956283560963e-01, 2.904228441061109e-03, 0.000000000000000e+00
97, 5.647376644470000e-01, 2.220446049250313e-16, 1.150579702170626e+05, 1.882595175230795e-01, 2.890504569158496e-03, 0.000000000000000e+00
98, 5.833283553420000e-01, 2.220446049250313e-16, 1.150578548836897e+05, 1.882235290415427e-01, 2.876727120699314e-03, 0.000000000000000e+00
99, 6.027481362320000e-01, 2.220446049250313e-16, 1.150577425501712e+05, 1.881884766308073e-01, 2.862888302797313e-03, 0.000000000000000e+00
100, 6.230581989500000e-01, 2.220446049250313e-16, 1.150576313928125e+05, 1.881537912275285e-01, 2.848979256982444e-03, 0.000000000000000e+00
101, 6.443258788700000e-01, 2.220446049250313e-16, 1.150575178996741e+05, 1.881183769704429e-01, 2.834987075856597e-03, 0.000000000000000e+00
102, 6.666254466970000e-01, 2.220446049250313e-16, 1.150574040334266e+05, 1.880828462888924e-01, 2.820898194691621e-03, 0.000000000000000e+00
103, 6.900390259370000e-01, 2.220446049250313e-16, 1.150572932333128e+05, 1.880482723598585e-01, 2.806701897369945e-03, 0.000000000000000e+00
104, 7.146576599530000e-01, 2.220446049250313e-16, 1.150571839375014e+05, 1.880141678314484e-01, 2.792387321360370e-03, 0.000000000000000e+00
105, 7.405825578610000e-01, 2.220446049250313e-16, 1.150570728288502e+05, 1.879794976267838e-01, 2.777939972758549e-03, 0.000000000000000e+00
106, 7.679265552350000e-01, 2.220446049250313e-16, 1.150569619633957e+05, 1.879449033089274e-01, 2.763344064775469e-03, 0.000000000000000e+00
107, 7.968158341210000e-01, 2.220446049250313e-16, 1.150568551059135e+05, 1.879115596337464e-01, 2.748585433283415e-03, 0.000000000000000e+00
108, 8.273919576770000e-01, 2.220446049250313e-16, 1.150567488696331e+05, 1.878784097975732e-01, 2.733649390930586e-03, 0.000000000000000e+00
109, 8.598142887360000e-01, 2.220446049250313e-16, 1.150566404447722e+05, 1.878445770394748e-01, 2.718519132449084e-03, 0.000000000000000e+00
110, 8.942628795040000e-01, 2.220446049250313e-16, 1.150565342659290e+05, 1.878114451259276e-01, 2.703180597883546e-03, 0.000000000000000e+00
111, 9.309419431120000e-01, 2.220446049250313e-16, 1.150564336073890e+05, 1.877800357609313e-01, 2.687621415919766e-03, 0.000000000000000e+00
112, 9.700840484090000e-01, 2.220446049250313e-16, 1.150563386704244e+05, 1.877504117491287e-01, 2.671819398021314e-03, 0.000000000000000e+00
113, 1.011955220140000e+00, 2.220446049250313e-16, 1.150562493660941e+05, 1.877225453375038e-01, 2.655722479059025e-03, 0.000000000000000e+00
114, 1.054913688830000e+00, 2.220446049250313e-16, 1.150561622902959e+05, 1.876953743142785e-01, 2.639943261643058e-03, 0.000000000000000e+00
115, 1.097872157520000e+00, 2.220446049250313e-16, 1.150560786394996e+05, 1.876692720243366e-01, 2.624837831737567e-03, 0.000000000000000e+00
116, 1.140830626210000e+00, 2.220446049250313e-16, 1.150560001200096e+05, 1.876447709008136e-01, 2.610370310111243e-03, 0.000000000000000e+00
117, 1.183789094900000e+00, 2.220446049250313e-16, 1.150559304478338e+05, 1.876230304821506e-01, 2.596503451719498e-03, 0.000000000000000e+00
118, 1.226747563590000e+00, 2.220446049250313e-16, 1.150558691515591e+05, 1.876039036691817e-01, 2.583202105528650e-03, 0.000000000000000e+00
119, 1.269706032280000e+00, 2.220446049250313e-16, 1.150558124981023e+05, 1.875862255953458e-01, 2.570432312535764e-03, 0.000000000000000e+00
120, 1.312664500970000e+00, 2.220446049250313e-16, 1.150557600994640e+05, 1.875698751897303e-01, 2.558159241517125e-03, 0.000000000000000e+00
121, 1.355622969660000e+00, 2.220446049250313e-16, 1.150557144512917e+05, 1.875556311910741e-01, 2.546349508602164e-03, 0.000000000000000e+00
122, 1.398581438350000e+00, 2.220446049250313e-16, 1.150556760452757e+05, 1.875436470258399e-01, 2.534975080619504e-03, 0.000000000000000e+00
123, 1.441539907040000e+00, 2.220446049250313e-16, 1.150556413541917e+05, 1.875328220633617e-01, 2.524010162506172e-03, 0.000000000000000e+00
124, 1.484498375720000e+00, 2.220446049250313e-16, 1.150556089057158e+05, 1.875226968814934e-01, 2.513423452764732e-03, 0.000000000000000e+00
125, 1.527456844410000e+00, 2.220446049250313e-16, 1.150555811706060e+05, 1.875140424524921e-01, 2.503188715551977e-03, 0.000000000000000e+00
126, 1.570415313100000e+00, 2.220446049250313e-16, 1.150555592262225e+05, 1.875071949544737e-01, 2.493289869172269e-03, 0.000000000000000e+00
127, 1.613373781790000e+00, 2.220446049250313e-16, 1.150555423596098e+05, 1.875019319177489e-01, 2.483710162879647e-03, 0.000000000000000e+00
128, 1.656332250480000e+00, 2.220446049250313e-16, 1.150555276804302e+05, 1.874973514448921e-01, 2.474435453706683e-03, 0.000000000000000e+00
129, 1.699290719170000e+00, 2.220446049250313e-16, 1.150555161207075e+05, 1.874937443634638e-01, 2.465454562785291e-03, 0.000000000000000e+00
130, 1.742249187860000e+00, 2.220446049250313e-16, 1.150555124104335e+05, 1.874925866141965e-01, 2.456755614201244e-03, 0.000000000000000e+00
131, 1.785207656550000e+00, 2.220446049250313e-16, 1.150555164420121e+05, 1.874938446229361e-01, 2.448305297335500e-03, 0.000000000000000e+00
132, 1.828166125240000e+00, 2.220446049250313e-16, 1.150555393237518e+05, 1.875009846123954e-01, 2.440038730004070e-03, 0.000000000000000e+00
133, 1.871124593930000e+00, 2.220446049250313e-16, 1.150555134569796e+05, 1.874929131771455e-01, 2.431815427693611e-03, 0.000000000000000e+00
134, 1.914083062620000e+00, 2.220446049250313e-16, 1.150556301716890e+05, 1.875293326891998e-01, 2.423807787371204e-03, 0.000000000000000e+00
135, 1.957041531310000e+00, 2.220446049250313e-16, 1.150547153913580e+05, 1.872438857779499e-01, 2.415070333015592e-03, 0.000000000000000e+00
136, 2.000000000000000e+00, 2.220446049250313e-16, 1.150639457001674e+05, 1.901240998031941e-01, 2.411817761536394e-03, 0.000000000000000e+00
