"Global_Index", "x_coord", "y_coord", "Pressure", "Pressure_Coefficient", "Skin_Friction_Coefficient_X", "Skin_Friction_Coefficient_Y", "Heat_Flux"
24, 0.000000000000000e+00, 2.220446049250313e-16, 3.636143584515635e+04, 2.106304279361507e-02, 7.692835276309980e-03, 0.000000000000000e+00, -1.721560823994297e+04
25, 4.011887597850000e-03, 2.220446049250313e-16, 3.515913722809716e+04, 8.557584197490444e-03, 2.244956849399795e-03, 0.000000000000000e+00, -3.944651272221132e+03
26, 8.056205200680001e-03, 2.220446049250313e-16, 3.484434367055173e+04, 5.283324588142998e-03, 1.488004071512723e-03, 0.000000000000000e+00, -3.410146932267911e+03
27, 1.213422760060000e-02, 2.220446049250313e-16, 3.454329395379501e+04, 2.152018675569598e-03, 1.332929723036854e-03, 0.000000000000000e+00, -2.652492340639575e+03
28, 1.624726554020000e-02, 2.220446049250313e-16, 3.445740698072622e+04, 1.258683217623777e-03, 2.005429015658075e-03, 0.000000000000000e+00, -5.968181427288760e+03
29, 2.039666755470000e-02, 2.220446049250313e-16, 3.466478326323224e+04, 3.415664418384486e-03, 2.667887289078357e-03, 0.000000000000000e+00, -7.170938427934659e+03
30, 2.458382190520000e-02, 2.220446049250313e-16, 3.478098331274782e+04, 4.624295026010974e-03, 2.883179174062331e-03, 0.000000000000000e+00, -6.458241131363885e+03
31, 2.881015861120000e-02, 2.220446049250313e-16, 3.481628077903931e+04, 4.991434268286791e-03, 2.916516437236112e-03, 0.000000000000000e+00, -5.859962770097462e+03
32, 3.307715158840000e-02, 2.220446049250313e-16, 3.482258279083244e+04, 5.056983331084555e-03, 2.887434023233345e-03, 0.000000000000000e+00, -5.368002178434770e+03
33, 3.738632089750000e-02, 2.220446049250313e-16, 3.482006128437075e+04, 5.030756406916835e-03, 2.836386829796748e-03, 0.000000000000000e+00, -4.951007927051023e+03
34, 4.173923511390000e-02, 2.220446049250313e-16, 3.481440571921498e+04, 4.971931224146364e-03, 2.787222367733914e-03, 0.000000000000000e+00, -4.625217041728869e+03
35, 4.613751382460000e-02, 2.220446049250313e-16, 3.480623958949292e+04, 4.886992927053796e-03, 2.743039437055570e-03, 0.000000000000000e+00, -4.364865843013441e+03
36, 5.058283026210000e-02, 2.220446049250313e-16, 3.479837617826561e+04, 4.805203293320445e-03, 2.703336994100351e-03, 0.000000000000000e+00, -4.146576677715648e+03
37, 5.507691408390000e-02, 2.220446049250313e-16, 3.479169989961097e+04, 4.735761371731879e-03, 2.667592044679557e-03, 0.000000000000000e+00, -3.957897785778564e+03
38, 5.962155430870000e-02, 2.220446049250313e-16, 3.478553530325626e+04, 4.671641606989702e-03, 2.635327567091603e-03, 0.000000000000000e+00, -3.793442548510310e+03
39, 6.421860241959999e-02, 2.220446049250313e-16, 3.477962439823191e+04, 4.610160559770050e-03, 2.605943431047085e-03, 0.000000000000000e+00, -3.648903833509001e+03
40, 6.886997564640000e-02, 2.220446049250313e-16, 3.477478246180266e+04, 4.559798166698980e-03, 2.578900722522591e-03, 0.000000000000000e+00, -3.518998216610326e+03
41, 7.357766043930000e-02, 2.220446049250313e-16, 3.476965609420909e+04, 4.506477322126592e-03, 2.553874590796665e-03, 0.000000000000000e+00, -3.402574515050270e+03
42, 7.834371614890000e-02, 2.220446049250313e-16, 3.476439403957031e+04, 4.451745157020372e-03, 2.530505189728784e-03, 0.000000000000000e+00, -3.296600959170515e+03
43, 8.317027892560000e-02, 2.220446049250313e-16, 3.475926025028726e+04, 4.398347117290917e-03, 2.508593921847662e-03, 0.000000000000000e+00, -3.199731535135917e+03
44, 8.805956585650000e-02, 2.220446049250313e-16, 3.475540788805573e+04, 4.358277574084129e-03, 2.487986648664450e-03, 0.000000000000000e+00, -3.109977991575082e+03
45, 9.301387935570000e-02, 2.220446049250313e-16, 3.475231494044770e+04, 4.326106923878462e-03, 2.468562846650588e-03, 0.000000000000000e+00, -3.026915086990907e+03
46, 9.803561182770000e-02, 2.220446049250313e-16, 3.474948808822743e+04, 4.296704009414145e-03, 2.450205853492188e-03, 0.000000000000000e+00, -2.950080757767577e+03
47, 1.031272506240000e-01, 2.220446049250313e-16, 3.474631587073542e+04, 4.263708850024186e-03, 2.432744357569840e-03, 0.000000000000000e+00, -2.878378572897265e+03
48, 1.082913833170000e-01, 2.220446049250313e-16, 3.474241712601860e+04, 4.223156869059276e-03, 2.416093013281095e-03, 0.000000000000000e+00, -2.811756052263668e+03
49, 1.135307033110000e-01, 2.220446049250313e-16, 3.473846545075814e+04, 4.182054342071585e-03, 2.400149638504524e-03, 0.000000000000000e+00, -2.749081506646947e+03
50, 1.188480158220000e-01, 2.220446049250313e-16, 3.473467400653391e+04, 4.142618424826973e-03, 2.384861343049419e-03, 0.000000000000000e+00, -2.689893167931554e+03
51, 1.242462442510000e-01, 2.220446049250313e-16, 3.473149492810422e+04, 4.109551902823010e-03, 2.370193806107408e-03, 0.000000000000000e+00, -2.633762382176355e+03
52, 1.297284369870000e-01, 2.220446049250313e-16, 3.472915488588251e+04, 4.085212441143894e-03, 2.356105742916563e-03, 0.000000000000000e+00, -2.580208334496162e+03
53, 1.352977746630000e-01, 2.220446049250313e-16, 3.472698202352379e+04, 4.062611865981877e-03, 2.342555593218994e-03, 0.000000000000000e+00, -2.529511848824146e+03
54, 1.409575779210000e-01, 2.220446049250313e-16, 3.472470345714693e+04, 4.038911832495994e-03, 2.329482349345940e-03, 0.000000000000000e+00, -2.481429930004808e+03
55, 1.467113157020000e-01, 2.220446049250313e-16, 3.472245846550502e+04, 4.015561019621181e-03, 2.316834561962265e-03, 0.000000000000000e+00, -2.435453603919002e+03
56, 1.525626141330000e-01, 2.220446049250313e-16, 3.471999040803604e+04, 3.989890034016418e-03, 2.304579070178329e-03, 0.000000000000000e+00, -2.391613513531649e+03
57, 1.585152660350000e-01, 2.220446049250313e-16, 3.471755481231248e+04, 3.964556692494008e-03, 2.292690044988224e-03, 0.000000000000000e+00, -2.349605617504096e+03
58, 1.645732411200000e-01, 2.220446049250313e-16, 3.471529016608660e+04, 3.941001446558634e-03, 2.281145604624046e-03, 0.000000000000000e+00, -2.309199885115778e+03
59, 1.707406969350000e-01, 2.220446049250313e-16, 3.471305756882151e+04, 3.917779551212245e-03, 2.269920182822615e-03, 0.000000000000000e+00, -2.270405201123109e+03
60, 1.770219906140000e-01, 2.220446049250313e-16, 3.471095490646697e+04, 3.895909146769253e-03, 2.258993853619403e-03, 0.000000000000000e+00, -2.232981823878256e+03
61, 1.834216915030000e-01, 2.220446049250313e-16, 3.470877784295636e+04, 3.873264874201070e-03, 2.248340757023199e-03, 0.000000000000000e+00, -2.197013182026757e+03
62, 1.899445947530000e-01, 2.220446049250313e-16, 3.470683041664529e+04, 3.853009125124662e-03, 2.237944043551527e-03, 0.000000000000000e+00, -2.162107407241176e+03
63, 1.965957359540000e-01, 2.220446049250313e-16, 3.470479892052042e+04, 3.831878941393827e-03, 2.227785231865560e-03, 0.000000000000000e+00, -2.128484531774334e+03
64, 2.033804069020000e-01, 2.220446049250313e-16, 3.470297852589764e+04, 3.812944485959226e-03, 2.217849738815671e-03, 0.000000000000000e+00, -2.095789035552939e+03
65, 2.103041726230000e-01, 2.220446049250313e-16, 3.470114004748431e+04, 3.793821935744531e-03, 2.208121317502562e-03, 0.000000000000000e+00, -2.064185934009526e+03
66, 2.173728897500000e-01, 2.220446049250313e-16, 3.469950430761852e+04, 3.776808128296556e-03, 2.198590369440156e-03, 0.000000000000000e+00, -2.033358285646141e+03
67, 2.245927263960000e-01, 2.220446049250313e-16, 3.469767788423559e+04, 3.757810965969104e-03, 2.189239400739321e-03, 0.000000000000000e+00, -2.003572076985729e+03
68, 2.319701836540000e-01, 2.220446049250313e-16, 3.469592387785894e+04, 3.739567034046353e-03, 2.180056876581549e-03, 0.000000000000000e+00, -1.974495327233052e+03
69, 2.395121189030000e-01, 2.220446049250313e-16, 3.469396724223317e+04, 3.719215496201594e-03, 2.171025850804247e-03, 0.000000000000000e+00, -1.946304385161405e+03
70, 2.472257710730000e-01, 2.220446049250313e-16, 3.469218415794188e+04, 3.700669116407325e-03, 2.162140956358578e-03, 0.000000000000000e+00, -1.918671446374713e+03
71, 2.551187880890000e-01, 2.220446049250313e-16, 3.469032361355675e+04, 3.681317051583817e-03, 2.153392060441036e-03, 0.000000000000000e+00, -1.891807634399022e+03
72, 2.631992566980000e-01, 2.220446049250313e-16, 3.468874738715926e+04, 3.664922261078155e-03, 2.144774046019233e-03, 0.000000000000000e+00, -1.865387947261878e+03
73, 2.714757349350000e-01, 2.220446049250313e-16, 3.468715042190138e+04, 3.648311759636591e-03, 2.136278216167678e-03, 0.000000000000000e+00, -1.839674341235080e+03
74, 2.799572875080000e-01, 2.220446049250313e-16, 3.468576503086974e+04, 3.633901903432992e-03, 2.127896720006747e-03, 0.000000000000000e+00, -1.814361137145069e+03
75, 2.886535243940000e-01, 2.220446049250313e-16, 3.468424498133875e+04, 3.618091424901160e-03, 2.119609265733950e-03, 0.000000000000000e+00, -1.789679134178104e+03
76, 2.975746430190000e-01, 2.220446049250313e-16, 3.468274383254602e+04, 3.602477538460814e-03, 2.111376551336972e-03, 0.000000000000000e+00, -1.765378374232267e+03
77, 3.067314743950000e-01, 2.220446049250313e-16, 3.468113767216635e+04, 3.585771395875593e-03, 2.103222049632561e-03, 0.000000000000000e+00, -1.741685833230009e+03
78, 3.161355336610000e-01, 2.220446049250313e-16, 3.467964296916463e+04, 3.570224553987638e-03, 2.095122328866222e-03, 0.000000000000000e+00, -1.718261157995986e+03
79, 3.257990755320000e-01, 2.220446049250313e-16, 3.467826541271380e+04, 3.555896187544162e-03, 2.087019132388083e-03, 0.000000000000000e+00, -1.694709504847237e+03
80, 3.357351552200000e-01, 2.220446049250313e-16, 3.467681286411295e+04, 3.540787805875043e-03, 2.078875646478629e-03, 0.000000000000000e+00, -1.671024021249568e+03
81, 3.459576954530000e-01, 2.220446049250313e-16, 3.467553951918035e+04, 3.527543373828597e-03, 2.070675891934413e-03, 0.000000000000000e+00, -1.646932336108922e+03
82, 3.564815603450000e-01, 2.220446049250313e-16, 3.467413378179628e+04, 3.512921889278855e-03, 2.062411592320041e-03, 0.000000000000000e+00, -1.622722609618251e+03
83, 3.673226369200000e-01, 2.220446049250313e-16, 3.467293415168557e+04, 3.500444186595564e-03, 2.054089880592502e-03, 0.000000000000000e+00, -1.598187254536096e+03
84, 3.784979252510000e-01, 2.220446049250313e-16, 3.467152079571793e+04, 3.485743458935947e-03, 2.045698637556903e-03, 0.000000000000000e+00, -1.573732850488164e+03
85, 3.900256382880000e-01, 2.220446049250313e-16, 3.467020630935112e+04, 3.472071102832304e-03, 2.037240542674015e-03, 0.000000000000000e+00, -1.549234480040145e+03
86, 4.019253126140000e-01, 2.220446049250313e-16, 3.466872229199907e+04, 3.456635405503314e-03, 2.028768321832109e-03, 0.000000000000000e+00, -1.525023886531857e+03
87, 4.142179315450000e-01, 2.220446049250313e-16, 3.466732368696649e+04, 3.442088106621778e-03, 2.020292965106428e-03, 0.000000000000000e+00, -1.500938959543548e+03
88, 4.269260622260000e-01, 2.220446049250313e-16, 3.466589067193355e+04, 3.427182899289928e-03, 2.011823514938380e-03, 0.000000000000000e+00, -1.477133719510963e+03
89, 4.400740085990000e-01, 2.220446049250313e-16, 3.466437490243954e+04, 3.411416938671077e-03, 2.003350278435192e-03, 0.000000000000000e+00, -1.453584598951289e+03
90, 4.536879824320000e-01, 2.220446049250313e-16, 3.466293263134377e+04, 3.396415456330020e-03, 1.994872087028111e-03, 0.000000000000000e+00, -1.430177771419907e+03
91, 4.677962949600000e-01, 2.220446049250313e-16, 3.466141276305498e+04, 3.380606862951152e-03, 1.986390448672333e-03, 0.000000000000000e+00, -1.407070422927878e+03
92, 4.824295720830000e-01, 2.220446049250313e-16, 3.466007690285047e+04, 3.366712191327472e-03, 1.977904511663642e-03, 0.000000000000000e+00, -1.384078938371471e+03
93, 4.976209965680000e-01, 2.220446049250313e-16, 3.465854260271635e+04, 3.350753488115908e-03, 1.969399797315031e-03, 0.000000000000000e+00, -1.361366908412678e+03
94, 5.134065813120000e-01, 2.220446049250313e-16, 3.465714441731164e+04, 3.336210553906220e-03, 1.960880367633225e-03, 0.000000000000000e+00, -1.338769018919708e+03
95, 5.298254783930000e-01, 2.220446049250313e-16, 3.465559176130556e+04, 3.320060925916476e-03, 1.952328431778143e-03, 0.000000000000000e+00, -1.316418588644513e+03
96, 5.469203295140000e-01, 2.220446049250313e-16, 3.465419387704614e+04, 3.305521124006822e-03, 1.943737435820668e-03, 0.000000000000000e+00, -1.294061986375444e+03
97, 5.647376644470000e-01, 2.220446049250313e-16, 3.465262198891836e+04, 3.289171457109791e-03, 1.935108416307889e-03, 0.000000000000000e+00, -1.271932598476604e+03
98, 5.833283553420000e-01, 2.220446049250313e-16, 3.465115021345468e+04, 3.273863091232380e-03, 1.926447253476733e-03, 0.000000000000000e+00, -1.249921851294428e+03
99, 6.027481362320000e-01, 2.220446049250313e-16, 3.464956648929628e+04, 3.257390314328574e-03, 1.917745162993236e-03, 0.000000000000000e+00, -1.228131847162315e+03
100, 6.230581989500000e-01, 2.220446049250313e-16, 3.464811580562928e+04, 3.242301330380410e-03, 1.908990715580533e-03, 0.000000000000000e+00, -1.206336093716415e+03
101, 6.443258788700000e-01, 2.220446049250313e-16, 3.464655734572309e+04, 3.226091334332709e-03, 1.900187633959290e-03, 0.000000000000000e+00, -1.184749078226929e+03
102, 6.666254466970000e-01, 2.220446049250313e-16, 3.464503739688717e+04, 3.210281903159742e-03, 1.891331306348332e-03, 0.000000000000000e+00, -1.163284476872352e+03
103, 6.900390259370000e-01, 2.220446049250313e-16, 3.464338720377263e+04, 3.193117763255755e-03, 1.882399854616282e-03, 0.000000000000000e+00, -1.141905128551727e+03
104, 7.146576599530000e-01, 2.220446049250313e-16, 3.464185022610058e+04, 3.177131210191286e-03, 1.873392263112941e-03, 0.000000000000000e+00, -1.120509698764206e+03
105, 7.405825578610000e-01, 2.220446049250313e-16, 3.464022891175000e+04, 3.160267446734586e-03, 1.864308170686825e-03, 0.000000000000000e+00, -1.099269406701885e+03
106, 7.679265552350000e-01, 2.220446049250313e-16, 3.463865330779568e+04, 3.143879130441819e-03, 1.855131102897211e-03, 0.000000000000000e+00, -1.078023135892710e+03
107, 7.968158341210000e-01, 2.220446049250313e-16, 3.463694413658209e+04, 3.126101542127285e-03, 1.845847101731720e-03, 0.000000000000000e+00, -1.056801828730910e+03
108, 8.273919576770000e-01, 2.220446049250313e-16, 3.463537519680140e+04, 3.109782541848255e-03, 1.836460217824887e-03, 0.000000000000000e+00, -1.035568872771870e+03
109, 8.598142887360000e-01, 2.220446049250313e-16, 3.463368207560037e+04, 3.092171894395780e-03, 1.826954851900991e-03, 0.000000000000000e+00, -1.014394795692210e+03
110, 8.942628795040000e-01, 2.220446049250313e-16, 3.463196621329656e+04, 3.074324710100202e-03, 1.817312083534686e-03, 0.000000000000000e+00, -9.931384387084490e+02
111, 9.309419431120000e-01, 2.220446049250313e-16, 3.463023059343604e+04, 3.056272021694533e-03, 1.807531094466822e-03, 0.000000000000000e+00, -9.718604545196824e+02
112, 9.700840484090000e-01, 2.220446049250313e-16, 3.462854364514300e+04, 3.038725580458466e-03, 1.797599291982903e-03, 0.000000000000000e+00, -9.505601388110813e+02
113, 1.011955220140000e+00, 2.220446049250313e-16, 3.462685316242236e+04, 3.021142376610063e-03, 1.787476505721638e-03, 0.000000000000000e+00, -9.289943605238810e+02
114, 1.054913688830000e+00, 2.220446049250313e-16, 3.462512052144526e+04, 3.003120672439653e-03, 1.777548897552437e-03, 0.000000000000000e+00, -9.079100339671735e+02
115, 1.097872157520000e+00, 2.220446049250313e-16, 3.462353698150861e+04, 2.986649811680037e-03, 1.768042727907816e-03, 0.000000000000000e+00, -8.877357747853977e+02
116, 1.140830626210000e+00, 2.220446049250313e-16, 3.462190875925444e+04, 2.969714197103169e-03, 1.758930997431068e-03, 0.000000000000000e+00, -8.684681179971839e+02
117, 1.183789094900000e+00, 2.220446049250313e-16, 3.462033143763416e+04, 2.953308014865825e-03, 1.750202814866455e-03, 0.000000000000000e+00, -8.501281625601174e+02
118, 1.226747563590000e+00, 2.220446049250313e-16, 3.461903131679272e+04, 2.939785078781620e-03, 1.741843531925483e-03, 0.000000000000000e+00, -8.326591864964040e+02
119, 1.269706032280000e+00, 2.220446049250313e-16, 3.461772439096634e+04, 2.926191362064255e-03, 1.733821241462130e-03, 0.000000000000000e+00, -8.160657098815842e+02
120, 1.312664500970000e+00, 2.220446049250313e-16, 3.461653588191445e+04, 2.913829332757504e-03, 1.726112562772833e-03, 0.000000000000000e+00, -8.001967506440334e+02
121, 1.355622969660000e+00, 2.220446049250313e-16, 3.461523555117199e+04, 2.900304213431607e-03, 1.718703255839705e-03, 0.000000000000000e+00, -7.851603486181185e+02
122, 1.398581438350000e+00, 2.220446049250313e-16, 3.461410160610308e+04, 2.888509720026838e-03, 1.711577974212724e-03, 0.000000000000000e+00, -7.707978883695918e+02
123, 1.441539907040000e+00, 2.220446049250313e-16, 3.461283528039660e+04, 2.875338296998588e-03, 1.704712332483988e-03, 0.000000000000000e+00, -7.571595838332252e+02
124, 1.484498375720000e+00, 2.220446049250313e-16, 3.461162252165769e+04, 2.862724039624050e-03, 1.698088169713373e-03, 0.000000000000000e+00, -7.440666703343786e+02
125, 1.527456844410000e+00, 2.220446049250313e-16, 3.461045064332797e+04, 2.850534991309462e-03, 1.691693261531917e-03, 0.000000000000000e+00, -7.315771720893603e+02
126, 1.570415313100000e+00, 2.220446049250313e-16, 3.460936435962305e+04, 2.839236237653028e-03, 1.685526035330538e-03, 0.000000000000000e+00, -7.195900362310535e+02
127, 1.613373781790000e+00, 2.220446049250313e-16, 3.460846091154640e+04, 2.829839210694847e-03, 1.679553314532824e-03, 0.000000000000000e+00, -7.081927518832498e+02
128, 1.656332250480000e+00, 2.220446049250313e-16, 3.460738368194899e+04, 2.818634631451570e-03, 1.673796044383057e-03, 0.000000000000000e+00, -6.970025439185507e+02
129, 1.699290719170000e+00, 2.220446049250313e-16, 3.460641277822082e+04, 2.808535978586798e-03, 1.668155773442530e-03, 0.000000000000000e+00, -6.869329439426430e+02
130, 1.742249187860000e+00, 2.220446049250313e-16, 3.460551124759165e+04, 2.799158895559129e-03, 1.662815049338961e-03, 0.000000000000000e+00, -6.755960197977297e+02
131, 1.785207656550000e+00, 2.220446049250313e-16, 3.460449901976149e+04, 2.788630418656414e-03, 1.657360978090481e-03, 0.000000000000000e+00, -6.685886048175672e+02
132, 1.828166125240000e+00, 2.220446049250313e-16, 3.460276472583425e+04, 2.770591521669503e-03, 1.652646812198571e-03, 0.000000000000000e+00, -6.563302924610069e+02
133, 1.871124593930000e+00, 2.220446049250313e-16, 3.460684293364114e+04, 2.813010150578994e-03, 1.646947571288976e-03, 0.000000000000000e+00, -6.538855868829780e+02
134, 1.914083062620000e+00, 2.220446049250313e-16, 3.458562076850025e+04, 2.592272220979949e-03, 1.643142897108650e-03, 0.000000000000000e+00, -6.311402568967034e+02
135, 1.957041531310000e+00, 2.220446049250313e-16, 3.463796189734372e+04, 3.136687568664119e-03, 1.635196025613372e-03, 0.000000000000000e+00, -7.165313817287604e+02
136, 2.000000000000000e+00, 2.220446049250313e-16, 3.452743900722890e+04, 1.987106751848705e-03, 1.651100529897858e-03, 0.000000000000000e+00, -1.678633879670706e+02
