"Global_Index", "x_coord", "y_coord", "Pressure", "Pressure_Coefficient", "Skin_Friction_Coefficient_X", "Skin_Friction_Coefficient_Y", "Heat_Flux"
1143, 2.344165146350860e-01, -5.327359586954120e-02, 3.667831290905838e+04, -1.456281587186140e-01, 3.596582660083049e-03, -2.605406294345249e-04, -4.783185980535493e+02
1117, 2.482267022132870e-01, -5.422909930348400e-02, 3.633433284720364e+04, -1.694722973445422e-01, 3.628683506917317e-03, -2.354049246364490e-04, -4.867903159893872e+02
1091, 2.625653147697450e-01, -5.509970337152480e-02, 3.599958699042282e+04, -1.926763358882293e-01, 3.646543303350752e-03, -2.060931331042033e-04, -4.911895556099457e+02
1065, 2.774220108985900e-01, -5.587914213538170e-02, 3.569193714915030e+04, -2.140021226910836e-01, 3.656918009628020e-03, -1.772176517752701e-04, -4.935692909211615e+02
1039, 2.927811741828920e-01, -5.656399205327030e-02, 3.536489457406304e+04, -2.366721822721947e-01, 3.675026943357947e-03, -1.475692942455596e-04, -5.006387830394837e+02
1013, 3.086399734020230e-01, -5.713268741965290e-02, 3.500517168255513e+04, -2.616075882541162e-01, 3.701910260852323e-03, -1.130223374803691e-04, -5.113860685020402e+02
987, 3.249974250793460e-01, -5.754758045077320e-02, 3.464802002376119e+04, -2.863647605647574e-01, 3.708385363879585e-03, -7.078895017377273e-05, -5.177586832150610e+02
961, 3.418258726596830e-01, -5.776616930961610e-02, 3.435455471100642e+04, -3.067072989127538e-01, 3.699836208514573e-03, -2.605625603598107e-05, -5.192646802173475e+02
935, 3.590588271617890e-01, -5.778745934367180e-02, 3.411390588579188e+04, -3.233886842164331e-01, 3.663597197628331e-03, 2.349937221280027e-05, -5.140296233399959e+02
909, 3.766198158264160e-01, -5.754299089312550e-02, 3.396084611332748e+04, -3.339985387906069e-01, 3.595659897097749e-03, 7.675812666053616e-05, -4.979996926066884e+02
883, 3.944020271301270e-01, -5.703297257423400e-02, 3.395214914867906e+04, -3.346013982400285e-01, 3.503761127632960e-03, 1.290459926873031e-04, -4.701249590205136e+02
857, 4.122794568538670e-01, -5.622962117195130e-02, 3.409866996181124e+04, -3.244448136953617e-01, 3.395592415751995e-03, 1.765375905167136e-04, -4.333629175695413e+02
831, 4.301885962486270e-01, -5.517242103815080e-02, 3.438068756955471e+04, -3.048958116464360e-01, 3.283603917501830e-03, 2.155265784604358e-04, -3.948568225879910e+02
805, 4.480717480182650e-01, -5.388031527400020e-02, 3.472444424999566e+04, -2.810671574569256e-01, 3.156766959121733e-03, 2.485443572744753e-04, -3.564545607591063e+02
779, 4.658685922622680e-01, -5.236319825053220e-02, 3.512649790637989e+04, -2.531974516774802e-01, 3.024702841254591e-03, 2.748082014568370e-04, -3.190389876409399e+02
753, 4.835794866085050e-01, -5.065427348017690e-02, 3.558323544862628e+04, -2.215371478381610e-01, 2.894803423637089e-03, 2.929357005036920e-04, -2.845244885306927e+02
727, 5.012295246124270e-01, -4.878489673137660e-02, 3.605012538796647e+04, -1.891730963386297e-01, 2.767715133632293e-03, 3.051901183540067e-04, -2.545039363088331e+02
701, 5.188096761703490e-01, -4.676951467990880e-02, 3.651420302171937e+04, -1.570039892900074e-01, 2.644317943124638e-03, 3.132090662786564e-04, -2.280051806200408e+02
675, 5.363336801528930e-01, -4.462694749236110e-02, 3.698428586929329e+04, -1.244186105829206e-01, 2.524648596158568e-03, 3.169011894409855e-04, -2.037690957927585e+02
649, 5.538190603256230e-01, -4.237503558397290e-02, 3.745992105986902e+04, -9.144835248625587e-02, 2.407904714732790e-03, 3.157656613586467e-04, -1.820266705312912e+02
623, 5.713157057762150e-01, -4.003950580954550e-02, 3.791575561102405e+04, -5.985064252125725e-02, 2.301798635586058e-03, 3.122500952100884e-04, -1.636263771707643e+02
597, 5.888153314590450e-01, -3.762762248516080e-02, 3.836143108534595e+04, -2.895714324514073e-02, 2.211728575586328e-03, 3.030766886592073e-04, -1.513782974437950e+02
571, 6.065399646759030e-01, -3.521266952157020e-02, 3.874533540170216e+04, -2.345520208235382e-03, 2.142223968843453e-03, 2.944166008993392e-04, -1.448626573481464e+02
545, 6.243042349815370e-01, -3.275020420551300e-02, 3.903503443061606e+04, 1.773594546734465e-02, 2.063425899134740e-03, 2.954755559667688e-04, -1.335556583787505e+02
519, 6.418011188507080e-01, -3.016339242458340e-02, 3.944559455292707e+04, 4.619530563455038e-02, 1.972109268055096e-03, 2.895502066329058e-04, -1.164017093065727e+02
493, 6.594728827476500e-01, -2.758665196597580e-02, 3.991270733554569e+04, 7.857480426783160e-02, 1.892505387339412e-03, 2.738244596133959e-04, -1.038113593518289e+02
467, 6.773055195808410e-01, -2.502630092203620e-02, 4.025354950352211e+04, 1.022014291918767e-01, 1.839571473939938e-03, 2.636769665109007e-04, -9.538817607355175e+01
441, 6.951977014541630e-01, -2.246599644422530e-02, 4.057667155731231e+04, 1.245997246108766e-01, 1.786585913338419e-03, 2.530845559970877e-04, -8.763376411169597e+01
415, 7.132214307785030e-01, -1.993851736187930e-02, 4.090500876875419e+04, 1.473595262791980e-01, 1.734379561224466e-03, 2.406583827134571e-04, -8.080610396918375e+01
389, 7.313483357429500e-01, -1.744982041418550e-02, 4.120323818975948e+04, 1.680323048653694e-01, 1.686086323970318e-03, 2.288900166311093e-04, -7.459155296692744e+01
363, 7.495508193969730e-01, -1.500672101974490e-02, 4.149842178648570e+04, 1.884939518645850e-01, 1.640390797924610e-03, 2.158807399966728e-04, -6.900722917985023e+01
337, 7.678796052932740e-01, -1.264218706637620e-02, 4.177603195850253e+04, 2.077374376347935e-01, 1.600763870713153e-03, 2.019489962972403e-04, -6.442810854286104e+01
311, 7.863141298294070e-01, -1.036873925477270e-02, 4.203800292186726e+04, 2.258968388883307e-01, 1.569806762870907e-03, 1.863642555196544e-04, -6.150279248696285e+01
1169, 2.210974693298340e-01, -5.226382613182070e-02, 3.697055338272618e+04, -1.253705242247152e-01, 3.581754766302630e-03, -2.814177478132912e-04, -4.727142172212849e+02
2313, 1.973092555999760e-03, 5.815388169139620e-03, 3.603357855272316e+04, -1.903200960549349e-01, 4.113157593215912e-03, 6.021264679275277e-03, -2.457946799762499e+03
2339, 2.858132123947140e-03, 6.970721762627360e-03, 3.373781975295413e+04, -3.494583634830748e-01, 4.462430936228592e-03, 5.234094781526357e-03, -2.184945598226139e+03
2287, 1.276999711990360e-03, 4.656096920371060e-03, 3.882234291929951e+04, 2.992515708524139e-03, 3.413534545390757e-03, 6.387328602950037e-03, -2.381153970828049e+03
2261, 7.326900959014890e-04, 3.494375152513380e-03, 4.178908208234556e+04, 2.086420510019779e-01, 2.502763149839017e-03, 6.245475840338612e-03, -2.045488883728140e+03
2235, 3.451704978942870e-04, 2.330780262127520e-03, 4.480571980347548e+04, 4.177504732139654e-01, 1.530061769670550e-03, 5.677322719720586e-03, -1.597732171812497e+03
2209, 1.051127910614010e-04, 1.165737863630060e-03, 4.707954135248034e+04, 5.753680860859309e-01, 7.476394054192732e-04, 5.048470770157436e-03, -1.250240724855088e+03
2183, 0.000000000000000e+00, 0.000000000000000e+00, 5.047784447982537e+04, 8.109329337239871e-01, -1.096771581986124e-04, 4.097699012213251e-03, -8.090066404304270e+02
2157, 1.753866672515870e-04, -1.459796912968160e-03, 5.308603038556216e+04, 9.917281401765140e-01, -5.144985581874999e-04, 2.784709538277446e-03, -3.207572643253654e+02
2131, 5.391836166381840e-04, -2.918316749855880e-03, 5.450219185468326e+04, 1.089894150742212e+00, -4.958219941960476e-04, 1.526825034025117e-03, -3.294608337599291e+01
2105, 1.121968030929570e-03, -4.374681971967220e-03, 5.516723831663636e+04, 1.135994090215417e+00, -2.180878360422989e-04, 4.620159464177295e-04, 7.546494617418030e+01
2079, 1.912891864776610e-03, -5.828497931361200e-03, 5.511528818688619e+04, 1.132392991684535e+00, 2.451561974616115e-04, -3.749934484870531e-04, 6.434542982256630e+01
2053, 3.018766641616820e-03, -7.276044692844150e-03, 5.444920641140681e+04, 1.086221285960958e+00, 8.156920171030271e-04, -9.214486677030350e-04, -1.013255095168172e+01
2027, 4.468053579330440e-03, -8.714943192899231e-03, 5.348480797398329e+04, 1.019370754251170e+00, 1.342410724585492e-03, -1.220259007288946e-03, -9.409462462326424e+01
2001, 6.177186965942380e-03, -1.014706678688530e-02, 5.255123469815878e+04, 9.546569726261693e-01, 1.740273002742766e-03, -1.385337086341772e-03, -1.625389780202698e+02
1975, 8.062899112701419e-03, -1.157660502940420e-02, 5.155271418110723e+04, 8.854411538341340e-01, 2.060747312304913e-03, -1.473069926827153e-03, -2.191105338503122e+02
1949, 1.017087697982790e-02, -1.300184894353150e-02, 5.045058685694359e+04, 8.090434796227757e-01, 2.332180695452648e-03, -1.472653054350821e-03, -2.596093441816390e+02
1923, 1.256430149078370e-02, -1.441901084035630e-02, 4.942213185802954e+04, 7.377526512171707e-01, 2.528100047890831e-03, -1.406731803111740e-03, -2.770503676069919e+02
1897, 1.524919271469120e-02, -1.582761853933330e-02, 4.854227584346382e+04, 6.767624628061305e-01, 2.672238776578562e-03, -1.331282346948965e-03, -2.832801239768323e+02
1871, 1.820489764213560e-02, -1.722909882664680e-02, 4.774261503877678e+04, 6.213312759580645e-01, 2.787425220081846e-03, -1.259489877986667e-03, -2.899544567572327e+02
1845, 2.143678069114690e-02, -1.862346194684510e-02, 4.701132764876838e+04, 5.706396230502365e-01, 2.890564786138150e-03, -1.202472462282931e-03, -3.030682984973384e+02
1819, 2.490270137786870e-02, -2.001537941396240e-02, 4.632239751811608e+04, 5.228841064941946e-01, 2.988184845107876e-03, -1.157596490412887e-03, -3.250860479805227e+02
1793, 2.861636877059940e-02, -2.140477113425730e-02, 4.560882373600892e+04, 4.734203320863156e-01, 3.073016998553501e-03, -1.096905251808238e-03, -3.467255729950149e+02
1767, 3.265759348869320e-02, -2.278346754610540e-02, 4.499969613295513e+04, 4.311965969960319e-01, 3.136910112575610e-03, -1.032315067721973e-03, -3.585651583833665e+02
1741, 3.698146343231200e-02, -2.415761165320870e-02, 4.449714653171856e+04, 3.963606757112970e-01, 3.197352054095076e-03, -9.858757056320363e-04, -3.706758266647806e+02
1715, 4.156750440597530e-02, -2.553076110780240e-02, 4.398250752771833e+04, 3.606867366826064e-01, 3.259447168225788e-03, -9.477760170228800e-04, -3.902688227720926e+02
1689, 4.642483592033390e-02, -2.690353803336620e-02, 4.344386624978451e+04, 3.233489990490666e-01, 3.318651640487622e-03, -9.042276059294600e-04, -4.101840842494331e+02
1663, 5.161416530609130e-02, -2.826815843582150e-02, 4.296216842241226e+04, 2.899584888266372e-01, 3.358418606925618e-03, -8.559022306272624e-04, -4.217707123810047e+02
1637, 5.711802840232850e-02, -2.962872758507730e-02, 4.253838060087027e+04, 2.605822060550663e-01, 3.381083687610880e-03, -8.055378810138895e-04, -4.261336932842764e+02
1611, 6.298619508743290e-02, -3.097752667963500e-02, 4.216328567464928e+04, 2.345812356195393e-01, 3.390086571043787e-03, -7.575503384736255e-04, -4.256957502457325e+02
1585, 6.917616724967959e-02, -3.232324495911600e-02, 4.183956186771215e+04, 2.121412276507585e-01, 3.402277856084483e-03, -7.248945422784334e-04, -4.289909726731549e+02
1559, 7.564741373062130e-02, -3.367514535784720e-02, 4.145836686757431e+04, 1.857174100091539e-01, 3.436864729312572e-03, -6.975419517105981e-04, -4.399999536344646e+02
1533, 8.247101306915280e-02, -3.502155095338820e-02, 4.106081641902166e+04, 1.581598592750288e-01, 3.472217668738149e-03, -6.675217646969567e-04, -4.511929862487659e+02
1507, 8.964005112648010e-02, -3.636518120765690e-02, 4.069619307170820e+04, 1.328847616640993e-01, 3.493160981748948e-03, -6.347791302591947e-04, -4.572659477157245e+02
1481, 9.719923138618471e-02, -3.769797086715700e-02, 4.034478819787205e+04, 1.085259471432906e-01, 3.502098483743475e-03, -5.977529428294672e-04, -4.586097498288634e+02
1455, 1.051684617996220e-01, -3.901563584804530e-02, 4.004637874762876e+04, 8.784068922304263e-02, 3.509437655700371e-03, -5.672411185088536e-04, -4.589503798547557e+02
1429, 1.134960949420930e-01, -4.033208265900610e-02, 3.973406774391096e+04, 6.619179821785727e-02, 3.520158219978686e-03, -5.364773658961404e-04, -4.618633016294265e+02
1403, 1.222792565822600e-01, -4.162334650754930e-02, 3.942954642441209e+04, 4.508287545782844e-02, 3.521296776399630e-03, -5.036862827211873e-04, -4.619024738939805e+02
1377, 1.314679384231570e-01, -4.290277510881420e-02, 3.917211116180150e+04, 2.723788160617502e-02, 3.522887415624296e-03, -4.791857623415672e-04, -4.627527488399832e+02
1351, 1.410477757453920e-01, -4.417625442147250e-02, 3.886290192646382e+04, 5.804000142073101e-03, 3.541019711083121e-03, -4.526374340018204e-04, -4.672113123753080e+02
1325, 1.511152982711790e-01, -4.541423544287680e-02, 3.857406572554301e+04, -1.421765569985931e-02, 3.546470324741209e-03, -4.236367791550428e-04, -4.670478772719719e+02
1299, 1.616173982620240e-01, -4.663335904479030e-02, 3.832549406177829e+04, -3.144823929044708e-02, 3.546593941929624e-03, -3.969392285394332e-04, -4.644475510235063e+02
1273, 1.725961565971370e-01, -4.781839996576310e-02, 3.807588536828505e+04, -4.875070809575591e-02, 3.545369295031527e-03, -3.711950990897936e-04, -4.626330465431488e+02
1247, 1.840233504772190e-01, -4.897923022508620e-02, 3.783104089602794e+04, -6.572292883091044e-02, 3.545574395171837e-03, -3.503257487203086e-04, -4.637123861593691e+02
1221, 1.958884000778200e-01, -5.011982470750810e-02, 3.754310439365410e+04, -8.568221903234705e-02, 3.562380816426304e-03, -3.291654804093096e-04, -4.686924116203861e+02
1195, 2.082438766956330e-01, -5.121721699833870e-02, 3.724135931352100e+04, -1.065986973933041e-01, 3.576321027146244e-03, -3.041618593430645e-04, -4.720045787443231e+02
2365, 3.939032554626460e-03, 8.121287450194361e-03, 3.248429542712804e+04, -4.363506317000411e-01, 4.595683729853403e-03, 4.536182543885860e-03, -1.799454836747599e+03
3067, 9.501701593399051e-02, 3.806984424591060e-02, 2.499682185196034e+04, -9.553701263812970e-01, 4.787494739959445e-03, 8.965924369907258e-04, -9.518735696774003e+02
3041, 8.928063511848450e-02, 3.696753084659580e-02, 2.501183460953831e+04, -9.543294664345652e-01, 4.782488389729936e-03, 9.358145008351268e-04, -9.580860014815260e+02
3015, 8.375442028045650e-02, 3.586603328585620e-02, 2.496468102006207e+04, -9.575980765921402e-01, 4.799586085126237e-03, 9.745313709144754e-04, -9.657263014220931e+02
2989, 7.843562960624691e-02, 3.476550802588460e-02, 2.488727179179818e+04, -9.629639584391810e-01, 4.827803096470459e-03, 1.018326147141516e-03, -9.804413603258747e+02
2963, 7.332068681716920e-02, 3.366525098681450e-02, 2.476662626873016e+04, -9.713269099460805e-01, 4.877346714995656e-03, 1.066046748410771e-03, -1.001498570021220e+03
2937, 6.838649511337280e-02, 3.256905823946000e-02, 2.464755015438616e+04, -9.795810725918629e-01, 4.907817612420077e-03, 1.114701023239587e-03, -1.019305530746613e+03
2911, 6.365954875946039e-02, 3.147093951702120e-02, 2.450555952252193e+04, -9.894236323364549e-01, 4.946622466296373e-03, 1.166112772945276e-03, -1.041079332909510e+03
2885, 5.909299850463870e-02, 3.037821687757970e-02, 2.429930082850932e+04, -1.003721149658597e+00, 5.032886298676820e-03, 1.225909784902582e-03, -1.079860041676883e+03
2859, 5.469727516174320e-02, 2.928791008889680e-02, 2.413664054982723e+04, -1.014996495714747e+00, 5.111957000343549e-03, 1.297040582640230e-03, -1.121946090450993e+03
2833, 5.049252510070800e-02, 2.819604612886910e-02, 2.400726992138330e+04, -1.023964257340545e+00, 5.169349367825581e-03, 1.369217395461147e-03, -1.154285180580121e+03
2807, 4.645630717277530e-02, 2.710510604083540e-02, 2.387098796649058e+04, -1.033411100878955e+00, 5.215559897901022e-03, 1.440018056733088e-03, -1.184895467648402e+03
2781, 4.259017109870910e-02, 2.601420320570470e-02, 2.378867912350165e+04, -1.039116616052671e+00, 5.239258624016333e-03, 1.518399191321251e-03, -1.205649136644494e+03
2755, 3.891497850418090e-02, 2.491953969001770e-02, 2.365514532108198e+04, -1.048372962129748e+00, 5.287831531097827e-03, 1.601416292427519e-03, -1.234112568055870e+03
2729, 3.537228703498840e-02, 2.382827177643780e-02, 2.345570322585478e+04, -1.062197963906889e+00, 5.396564238851004e-03, 1.702776935600577e-03, -1.299417095995001e+03
2703, 3.199326992034910e-02, 2.273553423583510e-02, 2.337703100048412e+04, -1.067651394659921e+00, 5.530860007834202e-03, 1.841640473385162e-03, -1.379334557028436e+03
2677, 2.879580855369570e-02, 2.163846604526040e-02, 2.339039807398312e+04, -1.066724810857899e+00, 5.639805581317872e-03, 1.989971457968065e-03, -1.441685389978985e+03
2651, 2.576607465744020e-02, 2.053830586373810e-02, 2.344831742712054e+04, -1.062709935466907e+00, 5.719384124962041e-03, 2.142180752814037e-03, -1.502959295156423e+03
2625, 2.291005849838260e-02, 1.943397335708140e-02, 2.360523155368757e+04, -1.051832903332960e+00, 5.805284623404965e-03, 2.325389365260995e-03, -1.577775049227445e+03
2599, 2.023851871490480e-02, 1.832416467368600e-02, 2.386449118361293e+04, -1.033861447305204e+00, 5.881810909050195e-03, 2.534234008649740e-03, -1.658617780535950e+03
2573, 1.774638891220090e-02, 1.720915734767910e-02, 2.417173248623429e+04, -1.012563979737423e+00, 5.920643442271369e-03, 2.745944171074607e-03, -1.763566841247698e+03
2547, 1.542121171951290e-02, 1.608993858098980e-02, 2.465321448977216e+04, -9.791884300722957e-01, 5.962232035645213e-03, 3.000498232032373e-03, -1.916610659834986e+03
2521, 1.328635215759280e-02, 1.496464014053340e-02, 2.549736606173918e+04, -9.206732155719360e-01, 6.024446485351768e-03, 3.335250867517270e-03, -2.084152151062814e+03
2495, 1.134461164474490e-02, 1.383305341005330e-02, 2.667313027898201e+04, -8.391711516552683e-01, 5.974885272849436e-03, 3.653790154830338e-03, -2.180246955867247e+03
2469, 9.577721357345579e-03, 1.269672065973280e-02, 2.819664208813036e+04, -7.335637900550115e-01, 5.758605131774944e-03, 3.902464282802219e-03, -2.154307369300589e+03
2443, 7.984459400177000e-03, 1.155596133321520e-02, 3.002813340908893e+04, -6.066077894262240e-01, 5.303377207598927e-03, 3.988231858720092e-03, -1.939525823489619e+03
2417, 6.539613008499150e-03, 1.041201036423440e-02, 3.147338068668024e+04, -5.064255979066897e-01, 4.816351663931974e-03, 3.937253271693683e-03, -1.660341558774031e+03
2391, 5.185037851333620e-03, 9.267500601708891e-03, 3.203996346807905e+04, -4.671510006818007e-01, 4.707538849005446e-03, 4.146638529906584e-03, -1.583886903000089e+03
4627, 8.470668792724610e-01, 2.849674224853520e-02, 3.723638370082914e+04, -1.069435987754774e-01, 1.255124234247466e-03, -2.018880804774593e-04, -3.674766013205222e+01
4653, 8.601957559585570e-01, 2.635983005166050e-02, 3.757502780775567e+04, -8.346933986968105e-02, 1.179981000385241e-03, -1.948290106144024e-04, -3.120907505370254e+01
4601, 8.336892127990720e-01, 3.062343597412110e-02, 3.687328574521554e+04, -1.321129587138392e-01, 1.328285180830424e-03, -2.097755714180709e-04, -4.245214270583467e+01
4575, 8.201366662979130e-01, 3.274982050061230e-02, 3.649779529532365e+04, -1.581413462071678e-01, 1.404580980554158e-03, -2.168362757465820e-04, -4.947669611548106e+01
4549, 8.063289523124690e-01, 3.484725579619410e-02, 3.614208503805896e+04, -1.827986029073124e-01, 1.478679672480121e-03, -2.207032241589652e-04, -5.698927637805578e+01
4523, 7.922744154930110e-01, 3.690845519304280e-02, 3.578402207594251e+04, -2.076189452826229e-01, 1.544362003372095e-03, -2.235986950420009e-04, -6.420961227018068e+01
4497, 7.780403494834900e-01, 3.894298896193500e-02, 3.538216449793622e+04, -2.354750592277048e-01, 1.611901822492759e-03, -2.279632904725180e-04, -7.271160673751555e+01
4471, 7.636658549308780e-01, 4.095442220568660e-02, 3.502249150818225e+04, -2.604070061011757e-01, 1.676667295591047e-03, -2.270690006257751e-04, -8.217475813557660e+01
4445, 7.489700317382810e-01, 4.287994652986530e-02, 3.472880140447278e+04, -2.807651265926749e-01, 1.722543177211677e-03, -2.217550944183456e-04, -8.800343778948479e+01
4419, 7.341139912605290e-01, 4.475884139537810e-02, 3.430684441335731e+04, -3.100144991757447e-01, 1.774439407205644e-03, -2.264396570276033e-04, -9.355829298801102e+01
