"Global_Index", "x_coord", "y_coord", "Pressure", "Pressure_Coefficient", "Skin_Friction_Coefficient_X", "Skin_Friction_Coefficient_Y", "Heat_Flux"
24, 0.000000000000000e+00, 2.220446049250313e-16, 3.636118680395672e+04, 2.106045244345874e-02, 7.692850200345686e-03, 0.000000000000000e+00, -1.723235167707489e+04
25, 4.011887597850000e-03, 2.220446049250313e-16, 3.515930196622703e+04, 8.559297686829146e-03, 2.244956700020412e-03, 0.000000000000000e+00, -3.978678076708182e+03
26, 8.056205200680001e-03, 2.220446049250313e-16, 3.484394972512065e+04, 5.279227046810396e-03, 1.488329645564648e-03, 0.000000000000000e+00, -3.455326310129672e+03
27, 1.213422760060000e-02, 2.220446049250313e-16, 3.454218358529039e+04, 2.140469408886660e-03, 1.333980120850760e-03, 0.000000000000000e+00, -2.578225164073699e+03
28, 1.624726554020000e-02, 2.220446049250313e-16, 3.445343671888861e+04, 1.217387366225848e-03, 2.018141869322606e-03, 0.000000000000000e+00, -4.921003505711810e+03
29, 2.039666755470000e-02, 2.220446049250313e-16, 3.466247258505371e+04, 3.391630380683205e-03, 2.683526690156208e-03, 0.000000000000000e+00, -6.292276600012603e+03
30, 2.458382190520000e-02, 2.220446049250313e-16, 3.478189981408537e+04, 4.633827823743044e-03, 2.898476422850868e-03, 0.000000000000000e+00, -6.041312806012565e+03
31, 2.881015861120000e-02, 2.220446049250313e-16, 3.481623476415726e+04, 4.990955654077142e-03, 2.931451738370029e-03, 0.000000000000000e+00, -5.769284064713087e+03
32, 3.307715158840000e-02, 2.220446049250313e-16, 3.482234293773992e+04, 5.054488549110172e-03, 2.901344378915261e-03, 0.000000000000000e+00, -5.459639833393015e+03
33, 3.738632089750000e-02, 2.220446049250313e-16, 3.482038774663467e+04, 5.034152036144631e-03, 2.849519183067622e-03, 0.000000000000000e+00, -5.116672883403886e+03
34, 4.173923511390000e-02, 2.220446049250313e-16, 3.481474030713379e+04, 4.975411370680768e-03, 2.799962771277234e-03, 0.000000000000000e+00, -4.850795246823201e+03
35, 4.613751382460000e-02, 2.220446049250313e-16, 3.480676207910594e+04, 4.892427493915785e-03, 2.755207453064905e-03, 0.000000000000000e+00, -4.628256811210922e+03
36, 5.058283026210000e-02, 2.220446049250313e-16, 3.479898643565102e+04, 4.811550758382637e-03, 2.715199772123476e-03, 0.000000000000000e+00, -4.435554526092237e+03
37, 5.507691408390000e-02, 2.220446049250313e-16, 3.479223339162470e+04, 4.741310377772830e-03, 2.679213498368648e-03, 0.000000000000000e+00, -4.264986297360202e+03
38, 5.962155430870000e-02, 2.220446049250313e-16, 3.478618214015052e+04, 4.678369546192922e-03, 2.646724395107846e-03, 0.000000000000000e+00, -4.113712213097999e+03
39, 6.421860241959999e-02, 2.220446049250313e-16, 3.478038973727317e+04, 4.618121074368230e-03, 2.617140303243940e-03, 0.000000000000000e+00, -3.979206002478432e+03
40, 6.886997564640000e-02, 2.220446049250313e-16, 3.477545463672255e+04, 4.566789654097191e-03, 2.589893213435797e-03, 0.000000000000000e+00, -3.857303735015596e+03
41, 7.357766043930000e-02, 2.220446049250313e-16, 3.477050194016140e+04, 4.515275212588358e-03, 2.564674854890401e-03, 0.000000000000000e+00, -3.746915558453441e+03
42, 7.834371614890000e-02, 2.220446049250313e-16, 3.476510705007834e+04, 4.459161387281507e-03, 2.541122336076144e-03, 0.000000000000000e+00, -3.646002260349825e+03
43, 8.317027892560000e-02, 2.220446049250313e-16, 3.476003011161811e+04, 4.406354669542195e-03, 2.519035085486741e-03, 0.000000000000000e+00, -3.553051848243578e+03
44, 8.805956585650000e-02, 2.220446049250313e-16, 3.475620369187975e+04, 4.366554961773656e-03, 2.498272632445930e-03, 0.000000000000000e+00, -3.466550325906313e+03
45, 9.301387935570000e-02, 2.220446049250313e-16, 3.475305519373942e+04, 4.333806514278785e-03, 2.478699107456621e-03, 0.000000000000000e+00, -3.386267381565104e+03
46, 9.803561182770000e-02, 2.220446049250313e-16, 3.475037452428528e+04, 4.305924089402836e-03, 2.460209736684137e-03, 0.000000000000000e+00, -3.311499908590330e+03
47, 1.031272506240000e-01, 2.220446049250313e-16, 3.474708840893434e+04, 4.271744245160950e-03, 2.442622143080323e-03, 0.000000000000000e+00, -3.241706725246784e+03
48, 1.082913833170000e-01, 2.220446049250313e-16, 3.474322247590494e+04, 4.231533548127335e-03, 2.425843400861709e-03, 0.000000000000000e+00, -3.176432608009171e+03
49, 1.135307033110000e-01, 2.220446049250313e-16, 3.473926205589566e+04, 4.190340064456485e-03, 2.409781001630436e-03, 0.000000000000000e+00, -3.114873552520313e+03
50, 1.188480158220000e-01, 2.220446049250313e-16, 3.473545394909550e+04, 4.150730834899571e-03, 2.394374340769274e-03, 0.000000000000000e+00, -3.056565475456128e+03
51, 1.242462442510000e-01, 2.220446049250313e-16, 3.473236389144501e+04, 4.118590243985138e-03, 2.379598357948402e-03, 0.000000000000000e+00, -3.001046769156149e+03
52, 1.297284369870000e-01, 2.220446049250313e-16, 3.472997789849656e+04, 4.093772835394566e-03, 2.365405895908783e-03, 0.000000000000000e+00, -2.948101532543346e+03
53, 1.352977746630000e-01, 2.220446049250313e-16, 3.472779894938012e+04, 4.071108950090156e-03, 2.351749746573322e-03, 0.000000000000000e+00, -2.897784389458555e+03
54, 1.409575779210000e-01, 2.220446049250313e-16, 3.472558249535737e+04, 4.048054965315931e-03, 2.338577645173259e-03, 0.000000000000000e+00, -2.849891078494609e+03
55, 1.467113157020000e-01, 2.220446049250313e-16, 3.472329721858555e+04, 4.024285135054869e-03, 2.325834112064972e-03, 0.000000000000000e+00, -2.804072940922517e+03
56, 1.525626141330000e-01, 2.220446049250313e-16, 3.472082629434961e+04, 3.998584331370704e-03, 2.313484463171212e-03, 0.000000000000000e+00, -2.760233537260064e+03
57, 1.585152660350000e-01, 2.220446049250313e-16, 3.471834873082690e+04, 3.972814470528442e-03, 2.301502258009849e-03, 0.000000000000000e+00, -2.718187908235749e+03
58, 1.645732411200000e-01, 2.220446049250313e-16, 3.471615330271702e+04, 3.949979182406657e-03, 2.289869091551051e-03, 0.000000000000000e+00, -2.677573676123353e+03
59, 1.707406969350000e-01, 2.220446049250313e-16, 3.471386716325329e+04, 3.926200379035434e-03, 2.278560720353835e-03, 0.000000000000000e+00, -2.638615007771562e+03
60, 1.770219906140000e-01, 2.220446049250313e-16, 3.471169058940834e+04, 3.903561199622538e-03, 2.267546715777280e-03, 0.000000000000000e+00, -2.600965771849116e+03
61, 1.834216915030000e-01, 2.220446049250313e-16, 3.470963735096947e+04, 3.882204867742199e-03, 2.256814489505249e-03, 0.000000000000000e+00, -2.564569425948034e+03
62, 1.899445947530000e-01, 2.220446049250313e-16, 3.470761869834117e+04, 3.861208272965273e-03, 2.246340396810289e-03, 0.000000000000000e+00, -2.529374708356763e+03
63, 1.965957359540000e-01, 2.220446049250313e-16, 3.470566896926490e+04, 3.840928572156376e-03, 2.236106892676987e-03, 0.000000000000000e+00, -2.495259151791774e+03
64, 2.033804069020000e-01, 2.220446049250313e-16, 3.470374630677637e+04, 3.820930398821122e-03, 2.226095258762704e-03, 0.000000000000000e+00, -2.462213464574469e+03
65, 2.103041726230000e-01, 2.220446049250313e-16, 3.470206748443352e+04, 3.803468477963109e-03, 2.216296075617796e-03, 0.000000000000000e+00, -2.429963736669423e+03
66, 2.173728897500000e-01, 2.220446049250313e-16, 3.470026920057573e+04, 3.784764003044420e-03, 2.206694255118239e-03, 0.000000000000000e+00, -2.398756203762298e+03
67, 2.245927263960000e-01, 2.220446049250313e-16, 3.469851822744178e+04, 3.766551620763612e-03, 2.197273405554554e-03, 0.000000000000000e+00, -2.368313440518606e+03
68, 2.319701836540000e-01, 2.220446049250313e-16, 3.469662520812521e+04, 3.746861774706095e-03, 2.188020038189623e-03, 0.000000000000000e+00, -2.338755409384483e+03
69, 2.395121189030000e-01, 2.220446049250313e-16, 3.469483398582733e+04, 3.728230749131639e-03, 2.178922941957611e-03, 0.000000000000000e+00, -2.309814445404512e+03
70, 2.472257710730000e-01, 2.220446049250313e-16, 3.469293650946334e+04, 3.708494544023897e-03, 2.169973247419116e-03, 0.000000000000000e+00, -2.281636296885781e+03
71, 2.551187880890000e-01, 2.220446049250313e-16, 3.469116137399763e+04, 3.690030842282954e-03, 2.161160186117512e-03, 0.000000000000000e+00, -2.254017025167688e+03
72, 2.631992566980000e-01, 2.220446049250313e-16, 3.468948591381180e+04, 3.672603892200820e-03, 2.152479042241478e-03, 0.000000000000000e+00, -2.227002230289054e+03
73, 2.714757349350000e-01, 2.220446049250313e-16, 3.468799356623449e+04, 3.657081549769104e-03, 2.143919801740871e-03, 0.000000000000000e+00, -2.200488528890269e+03
74, 2.799572875080000e-01, 2.220446049250313e-16, 3.468659209357078e+04, 3.642504423819803e-03, 2.135479969544907e-03, 0.000000000000000e+00, -2.174486784745625e+03
75, 2.886535243940000e-01, 2.220446049250313e-16, 3.468501807969556e+04, 3.626132646403583e-03, 2.127143824844411e-03, 0.000000000000000e+00, -2.149101566421888e+03
76, 2.975746430190000e-01, 2.220446049250313e-16, 3.468350973456653e+04, 3.610443908770460e-03, 2.118901329399031e-03, 0.000000000000000e+00, -2.124095760454034e+03
77, 3.067314743950000e-01, 2.220446049250313e-16, 3.468192534746965e+04, 3.593964236450154e-03, 2.110715943928016e-03, 0.000000000000000e+00, -2.099564208650802e+03
78, 3.161355336610000e-01, 2.220446049250313e-16, 3.468059729128286e+04, 3.580150736690915e-03, 2.102546479543805e-03, 0.000000000000000e+00, -2.075010277264601e+03
79, 3.257990755320000e-01, 2.220446049250313e-16, 3.467899607545080e+04, 3.563496023787516e-03, 2.094351888095725e-03, 0.000000000000000e+00, -2.050529059429571e+03
80, 3.357351552200000e-01, 2.220446049250313e-16, 3.467766282729631e+04, 3.549628520857874e-03, 2.086115599894159e-03, 0.000000000000000e+00, -2.025658506286928e+03
81, 3.459576954530000e-01, 2.220446049250313e-16, 3.467624707099236e+04, 3.534902826600212e-03, 2.077809918774235e-03, 0.000000000000000e+00, -2.000537720161500e+03
82, 3.564815603450000e-01, 2.220446049250313e-16, 3.467501205715622e+04, 3.522057087468265e-03, 2.069441138228930e-03, 0.000000000000000e+00, -1.974999879964438e+03
83, 3.673226369200000e-01, 2.220446049250313e-16, 3.467367527559397e+04, 3.508152832533885e-03, 2.061024923320623e-03, 0.000000000000000e+00, -1.949350661120882e+03
84, 3.784979252510000e-01, 2.220446049250313e-16, 3.467230956497813e+04, 3.493947678075344e-03, 2.052579533116600e-03, 0.000000000000000e+00, -1.923653436848570e+03
85, 3.900256382880000e-01, 2.220446049250313e-16, 3.467094363463957e+04, 3.479740238216681e-03, 2.044123319461565e-03, 0.000000000000000e+00, -1.898020555020161e+03
86, 4.019253126140000e-01, 2.220446049250313e-16, 3.466951974949933e+04, 3.464929993561764e-03, 2.035654134660222e-03, 0.000000000000000e+00, -1.872507795730493e+03
87, 4.142179315450000e-01, 2.220446049250313e-16, 3.466823849424005e+04, 3.451603283900241e-03, 2.027184312624059e-03, 0.000000000000000e+00, -1.847004087395786e+03
88, 4.269260622260000e-01, 2.220446049250313e-16, 3.466662775090675e+04, 3.434849472677485e-03, 2.018673413509316e-03, 0.000000000000000e+00, -1.821767019019738e+03
89, 4.400740085990000e-01, 2.220446049250313e-16, 3.466519924029271e+04, 3.419991117120394e-03, 2.010124695041543e-03, 0.000000000000000e+00, -1.796510052587872e+03
90, 4.536879824320000e-01, 2.220446049250313e-16, 3.466363672284746e+04, 3.403738917425529e-03, 2.001572419284744e-03, 0.000000000000000e+00, -1.771541739023257e+03
91, 4.677962949600000e-01, 2.220446049250313e-16, 3.466229173605445e+04, 3.389749317492881e-03, 1.993022949379508e-03, 0.000000000000000e+00, -1.746628311771696e+03
92, 4.824295720830000e-01, 2.220446049250313e-16, 3.466076414632626e+04, 3.373860411170622e-03, 1.984466617993224e-03, 0.000000000000000e+00, -1.722016847524148e+03
93, 4.976209965680000e-01, 2.220446049250313e-16, 3.465933015193374e+04, 3.358945017234183e-03, 1.975877625110667e-03, 0.000000000000000e+00, -1.697378263958606e+03
94, 5.134065813120000e-01, 2.220446049250313e-16, 3.465782525029353e+04, 3.343292096332601e-03, 1.967267235782380e-03, 0.000000000000000e+00, -1.672916844326181e+03
95, 5.298254783930000e-01, 2.220446049250313e-16, 3.465638066139634e+04, 3.328266505862895e-03, 1.958637956723434e-03, 0.000000000000000e+00, -1.648595573931697e+03
96, 5.469203295140000e-01, 2.220446049250313e-16, 3.465492234417494e+04, 3.313098123088903e-03, 1.949979650358268e-03, 0.000000000000000e+00, -1.624377200804111e+03
97, 5.647376644470000e-01, 2.220446049250313e-16, 3.465334170976822e+04, 3.296657483593494e-03, 1.941288039191533e-03, 0.000000000000000e+00, -1.600308401676578e+03
98, 5.833283553420000e-01, 2.220446049250313e-16, 3.465180544035072e+04, 3.280678297291168e-03, 1.932565767657963e-03, 0.000000000000000e+00, -1.576357196449629e+03
99, 6.027481362320000e-01, 2.220446049250313e-16, 3.465027293392114e+04, 3.264738250923718e-03, 1.923802510243358e-03, 0.000000000000000e+00, -1.552526475532242e+03
100, 6.230581989500000e-01, 2.220446049250313e-16, 3.464884541050043e+04, 3.249890163452455e-03, 1.914987931350993e-03, 0.000000000000000e+00, -1.528672146289176e+03
101, 6.443258788700000e-01, 2.220446049250313e-16, 3.464722992608346e+04, 3.233087038835664e-03, 1.906123341771158e-03, 0.000000000000000e+00, -1.505002123344511e+03
102, 6.666254466970000e-01, 2.220446049250313e-16, 3.464566669593501e+04, 3.216827426106935e-03, 1.897203902635177e-03, 0.000000000000000e+00, -1.481403448259367e+03
103, 6.900390259370000e-01, 2.220446049250313e-16, 3.464405575284224e+04, 3.200071537127629e-03, 1.888209848867990e-03, 0.000000000000000e+00, -1.457823831483635e+03
104, 7.146576599530000e-01, 2.220446049250313e-16, 3.464253832111500e+04, 3.184288287136239e-03, 1.879141650006313e-03, 0.000000000000000e+00, -1.434206711869673e+03
105, 7.405825578610000e-01, 2.220446049250313e-16, 3.464087008146113e+04, 3.166936439912985e-03, 1.869996975635704e-03, 0.000000000000000e+00, -1.410723338469272e+03
106, 7.679265552350000e-01, 2.220446049250313e-16, 3.463925470446928e+04, 3.150134432656195e-03, 1.860757503300258e-03, 0.000000000000000e+00, -1.387190234944435e+03
107, 7.968158341210000e-01, 2.220446049250313e-16, 3.463760743078840e+04, 3.133000658633309e-03, 1.851412516343333e-03, 0.000000000000000e+00, -1.363607124316833e+03
108, 8.273919576770000e-01, 2.220446049250313e-16, 3.463598704999637e+04, 3.116146605391299e-03, 1.841963396124031e-03, 0.000000000000000e+00, -1.340012238467936e+03
109, 8.598142887360000e-01, 2.220446049250313e-16, 3.463431283152169e+04, 3.098732570708938e-03, 1.832394141186312e-03, 0.000000000000000e+00, -1.316389935628687e+03
110, 8.942628795040000e-01, 2.220446049250313e-16, 3.463255083312411e+04, 3.080405511445405e-03, 1.822686146769228e-03, 0.000000000000000e+00, -1.292673068151838e+03
111, 9.309419431120000e-01, 2.220446049250313e-16, 3.463089791552396e+04, 3.063213033372000e-03, 1.812841370411433e-03, 0.000000000000000e+00, -1.268843007704036e+03
112, 9.700840484090000e-01, 2.220446049250313e-16, 3.462910461158426e+04, 3.044560356033755e-03, 1.802842922101240e-03, 0.000000000000000e+00, -1.244995179280486e+03
113, 1.011955220140000e+00, 2.220446049250313e-16, 3.462742027038521e+04, 3.027041031942732e-03, 1.792653740984291e-03, 0.000000000000000e+00, -1.220805553463307e+03
114, 1.054913688830000e+00, 2.220446049250313e-16, 3.462575825331733e+04, 3.009753907651304e-03, 1.782663662553914e-03, 0.000000000000000e+00, -1.197177710901668e+03
115, 1.097872157520000e+00, 2.220446049250313e-16, 3.462407380103093e+04, 2.992233428108363e-03, 1.773095636449782e-03, 0.000000000000000e+00, -1.174643346557367e+03
116, 1.140830626210000e+00, 2.220446049250313e-16, 3.462243948535612e+04, 2.975234434086108e-03, 1.763924953241923e-03, 0.000000000000000e+00, -1.153093491412907e+03
117, 1.183789094900000e+00, 2.220446049250313e-16, 3.462089005224033e+04, 2.959118328318335e-03, 1.755141512626924e-03, 0.000000000000000e+00, -1.132561900663721e+03
118, 1.226747563590000e+00, 2.220446049250313e-16, 3.461959949638807e+04, 2.945694880476467e-03, 1.746728922532366e-03, 0.000000000000000e+00, -1.112985128627273e+03
119, 1.269706032280000e+00, 2.220446049250313e-16, 3.461827045868131e+04, 2.931871171641771e-03, 1.738655234695951e-03, 0.000000000000000e+00, -1.094364644394540e+03
120, 1.312664500970000e+00, 2.220446049250313e-16, 3.461701164302708e+04, 2.918777862857484e-03, 1.730897332430988e-03, 0.000000000000000e+00, -1.076566263310716e+03
121, 1.355622969660000e+00, 2.220446049250313e-16, 3.461579257018892e+04, 2.906097930695063e-03, 1.723442656113556e-03, 0.000000000000000e+00, -1.059611744993426e+03
122, 1.398581438350000e+00, 2.220446049250313e-16, 3.461467070776233e+04, 2.894429112377217e-03, 1.716274078673288e-03, 0.000000000000000e+00, -1.043398145848682e+03
123, 1.441539907040000e+00, 2.220446049250313e-16, 3.461331694691641e+04, 2.880348250960981e-03, 1.709364608719500e-03, 0.000000000000000e+00, -1.027996896978820e+03
124, 1.484498375720000e+00, 2.220446049250313e-16, 3.461214684211247e+04, 2.868177649605311e-03, 1.702700028705650e-03, 0.000000000000000e+00, -1.013147499176202e+03
125, 1.527456844410000e+00, 2.220446049250313e-16, 3.461089327575194e+04, 2.855138940255763e-03, 1.696265001581331e-03, 0.000000000000000e+00, -9.990079628142183e+02
126, 1.570415313100000e+00, 2.220446049250313e-16, 3.460996203881776e+04, 2.845452873285114e-03, 1.690060739037116e-03, 0.000000000000000e+00, -9.853096390383184e+02
127, 1.613373781790000e+00, 2.220446049250313e-16, 3.460889292388663e+04, 2.834332697052635e-03, 1.684050992002930e-03, 0.000000000000000e+00, -9.723959449752823e+02
128, 1.656332250480000e+00, 2.220446049250313e-16, 3.460785020607940e+04, 2.823487085005253e-03, 1.678256991316103e-03, 0.000000000000000e+00, -9.596354317555356e+02
129, 1.699290719170000e+00, 2.220446049250313e-16, 3.460692802744131e+04, 2.813895236014323e-03, 1.672583135945992e-03, 0.000000000000000e+00, -9.480255417361961e+02
130, 1.742249187860000e+00, 2.220446049250313e-16, 3.460587991596284e+04, 2.802993522819145e-03, 1.667209723912734e-03, 0.000000000000000e+00, -9.353374302493634e+02
131, 1.785207656550000e+00, 2.220446049250313e-16, 3.460506822384804e+04, 2.794550876383098e-03, 1.661724100072519e-03, 0.000000000000000e+00, -9.266369165784496e+02
132, 1.828166125240000e+00, 2.220446049250313e-16, 3.460321646217498e+04, 2.775290163109559e-03, 1.656982778581088e-03, 0.000000000000000e+00, -9.130710954369758e+02
133, 1.871124593930000e+00, 2.220446049250313e-16, 3.460718455394488e+04, 2.816563443000285e-03, 1.651238207867929e-03, 0.000000000000000e+00, -9.093544941895736e+02
134, 1.914083062620000e+00, 2.220446049250313e-16, 3.458620388821435e+04, 2.598337419207588e-03, 1.647426377551640e-03, 0.000000000000000e+00, -8.854024921735700e+02
135, 1.957041531310000e+00, 2.220446049250313e-16, 3.463842127563159e+04, 3.141465696225235e-03, 1.639416263630990e-03, 0.000000000000000e+00, -9.699153516552293e+02
136, 2.000000000000000e+00, 2.220446049250313e-16, 3.452760887331486e+04, 1.988873578554360e-03, 1.655509985955000e-03, 0.000000000000000e+00, -4.218077430374667e+02
