"Global_Index", "x_coord", "y_coord", "Pressure", "Pressure_Coefficient", "Skin_Friction_Coefficient_X", "Skin_Friction_Coefficient_Y", "Heat_Flux"
24, 0.000000000000000e+00, 2.220446049250313e-16, 1.150855978907068e+05, 1.968804222790917e-01, 1.212947911291651e-02, 0.000000000000000e+00, -9.740416100694803e+01
25, 4.011887597850000e-03, 2.220446049250313e-16, 1.150559197427937e+05, 1.876196900948125e-01, 3.272631720660987e-03, 0.000000000000000e+00, -1.053001596261080e+01
26, 8.056205200680001e-03, 2.220446049250313e-16, 1.150636145054378e+05, 1.900207542136871e-01, 2.515822456527450e-03, 0.000000000000000e+00, -3.493117548821252e+00
27, 1.213422760060000e-02, 2.220446049250313e-16, 1.150625109477679e+05, 1.896764014575368e-01, 2.216443682408286e-03, 0.000000000000000e+00, -2.709891904019196e+00
28, 1.624726554020000e-02, 2.220446049250313e-16, 1.150631492846150e+05, 1.898755872895431e-01, 2.003324074478612e-03, 0.000000000000000e+00, -2.214035634454518e+00
29, 2.039666755470000e-02, 2.220446049250313e-16, 1.150631551032919e+05, 1.898774029421981e-01, 1.833513545264060e-03, 0.000000000000000e+00, -1.854701301949417e+00
30, 2.458382190520000e-02, 2.220446049250313e-16, 1.150623575856753e+05, 1.896285465418257e-01, 1.687552205224836e-03, 0.000000000000000e+00, -1.571215540234069e+00
31, 2.881015861120000e-02, 2.220446049250313e-16, 1.150606186154992e+05, 1.890859204613830e-01, 1.560068045609438e-03, 0.000000000000000e+00, -1.342788701877662e+00
32, 3.307715158840000e-02, 2.220446049250313e-16, 1.150587158923961e+05, 1.884921971222211e-01, 1.461549410952562e-03, 0.000000000000000e+00, -1.178851339466614e+00
33, 3.738632089750000e-02, 2.220446049250313e-16, 1.150582950289596e+05, 1.883608714214762e-01, 1.427346032665563e-03, 0.000000000000000e+00, -1.123865567441174e+00
34, 4.173923511390000e-02, 2.220446049250313e-16, 1.150610504192036e+05, 1.892206599496579e-01, 1.525242526055110e-03, 0.000000000000000e+00, -1.312835101172112e+00
35, 4.613751382460000e-02, 2.220446049250313e-16, 1.150670646625105e+05, 1.910973369147881e-01, 1.847710457288700e-03, 0.000000000000000e+00, -1.997187363118510e+00
36, 5.058283026210000e-02, 2.220446049250313e-16, 1.150745221469537e+05, 1.934243610403613e-01, 2.462378805509913e-03, 0.000000000000000e+00, -4.146155832399687e+00
37, 5.507691408390000e-02, 2.220446049250313e-16, 1.150795135826072e+05, 1.949818823836113e-01, 3.217365750904463e-03, 0.000000000000000e+00, -7.981208057373962e+00
38, 5.962155430870000e-02, 2.220446049250313e-16, 1.150803530886476e+05, 1.952438407992639e-01, 3.789946067780237e-03, 0.000000000000000e+00, -1.111824007181749e+01
39, 6.421860241959999e-02, 2.220446049250313e-16, 1.150787432732369e+05, 1.947415160104077e-01, 4.070421583943388e-03, 0.000000000000000e+00, -1.258191943607561e+01
40, 6.886997564640000e-02, 2.220446049250313e-16, 1.150765178434073e+05, 1.940470956676110e-01, 4.148493709539670e-03, 0.000000000000000e+00, -1.290455335533818e+01
41, 7.357766043930000e-02, 2.220446049250313e-16, 1.150744868799513e+05, 1.934133563690348e-01, 4.134168342086719e-03, 0.000000000000000e+00, -1.274406518173085e+01
42, 7.834371614890000e-02, 2.220446049250313e-16, 1.150728268130250e+05, 1.928953511600223e-01, 4.088229625151637e-03, 0.000000000000000e+00, -1.243021112724160e+01
43, 8.317027892560000e-02, 2.220446049250313e-16, 1.150715064905093e+05, 1.924833593723020e-01, 4.035966459403249e-03, 0.000000000000000e+00, -1.210133076853584e+01
44, 8.805956585650000e-02, 2.220446049250313e-16, 1.150704515121069e+05, 1.921541652300845e-01, 3.985609783779156e-03, 0.000000000000000e+00, -1.179623809603458e+01
45, 9.301387935570000e-02, 2.220446049250313e-16, 1.150695889395512e+05, 1.918850091678186e-01, 3.939016169383320e-03, 0.000000000000000e+00, -1.152069049283764e+01
46, 9.803561182770000e-02, 2.220446049250313e-16, 1.150688678595771e+05, 1.916600042738854e-01, 3.896342522857449e-03, 0.000000000000000e+00, -1.127400264566206e+01
47, 1.031272506240000e-01, 2.220446049250313e-16, 1.150682513690156e+05, 1.914676353295348e-01, 3.857055823045923e-03, 0.000000000000000e+00, -1.105036418572281e+01
48, 1.082913833170000e-01, 2.220446049250313e-16, 1.150677132616839e+05, 1.912997249902430e-01, 3.820653616938687e-03, 0.000000000000000e+00, -1.084611538981393e+01
49, 1.135307033110000e-01, 2.220446049250313e-16, 1.150672354929898e+05, 1.911506426440290e-01, 3.786691102026394e-03, 0.000000000000000e+00, -1.065768547335568e+01
50, 1.188480158220000e-01, 2.220446049250313e-16, 1.150668065691475e+05, 1.910168017843493e-01, 3.754849318927597e-03, 0.000000000000000e+00, -1.048294683077972e+01
51, 1.242462442510000e-01, 2.220446049250313e-16, 1.150664159252628e+05, 1.908949057547723e-01, 3.724840811876334e-03, 0.000000000000000e+00, -1.031959415354183e+01
52, 1.297284369870000e-01, 2.220446049250313e-16, 1.150660586237667e+05, 1.907834138424608e-01, 3.696472464105951e-03, 0.000000000000000e+00, -1.016657811087940e+01
53, 1.352977746630000e-01, 2.220446049250313e-16, 1.150657276572895e+05, 1.906801394765588e-01, 3.669525366589653e-03, 0.000000000000000e+00, -1.002209994772206e+01
54, 1.409575779210000e-01, 2.220446049250313e-16, 1.150654201140865e+05, 1.905841740798353e-01, 3.643863903165563e-03, 0.000000000000000e+00, -9.885512884009200e+00
55, 1.467113157020000e-01, 2.220446049250313e-16, 1.150651327037214e+05, 1.904944909087176e-01, 3.619339746403644e-03, 0.000000000000000e+00, -9.755726204677368e+00
56, 1.525626141330000e-01, 2.220446049250313e-16, 1.150648606563486e+05, 1.904096015865037e-01, 3.595834165301496e-03, 0.000000000000000e+00, -9.631947034777760e+00
57, 1.585152660350000e-01, 2.220446049250313e-16, 1.150646045674932e+05, 1.903296919401050e-01, 3.573272006259244e-03, 0.000000000000000e+00, -9.513873360306384e+00
58, 1.645732411200000e-01, 2.220446049250313e-16, 1.150643614558781e+05, 1.902538316955515e-01, 3.551544138099505e-03, 0.000000000000000e+00, -9.400667965290976e+00
59, 1.707406969350000e-01, 2.220446049250313e-16, 1.150641284656199e+05, 1.901811297065830e-01, 3.530574884792122e-03, 0.000000000000000e+00, -9.291897108522644e+00
60, 1.770219906140000e-01, 2.220446049250313e-16, 1.150639065167731e+05, 1.901118730657886e-01, 3.510317485755036e-03, 0.000000000000000e+00, -9.187376571102151e+00
61, 1.834216915030000e-01, 2.220446049250313e-16, 1.150636937061057e+05, 1.900454678910886e-01, 3.490701250156011e-03, 0.000000000000000e+00, -9.086585593933181e+00
62, 1.899445947530000e-01, 2.220446049250313e-16, 1.150634877938055e+05, 1.899812152742851e-01, 3.471673094883500e-03, 0.000000000000000e+00, -8.989209508225480e+00
63, 1.965957359540000e-01, 2.220446049250313e-16, 1.150632900709806e+05, 1.899195180911178e-01, 3.453203605035455e-03, 0.000000000000000e+00, -8.895151298651514e+00
64, 2.033804069020000e-01, 2.220446049250313e-16, 1.150630996002735e+05, 1.898600838497188e-01, 3.435244251774286e-03, 0.000000000000000e+00, -8.804070389457923e+00
65, 2.103041726230000e-01, 2.220446049250313e-16, 1.150629137470030e+05, 1.898020904274703e-01, 3.417748930789947e-03, 0.000000000000000e+00, -8.715680128921784e+00
66, 2.173728897500000e-01, 2.220446049250313e-16, 1.150627333893971e+05, 1.897458118655052e-01, 3.400692780679658e-03, 0.000000000000000e+00, -8.629878073790856e+00
67, 2.245927263960000e-01, 2.220446049250313e-16, 1.150625592252713e+05, 1.896914659093544e-01, 3.384050166699696e-03, 0.000000000000000e+00, -8.546521880423702e+00
68, 2.319701836540000e-01, 2.220446049250313e-16, 1.150623889021764e+05, 1.896383185037054e-01, 3.367782500843434e-03, 0.000000000000000e+00, -8.465350641428492e+00
69, 2.395121189030000e-01, 2.220446049250313e-16, 1.150622216486518e+05, 1.895861289229102e-01, 3.351862856135030e-03, 0.000000000000000e+00, -8.386220607137510e+00
70, 2.472257710730000e-01, 2.220446049250313e-16, 1.150620592863509e+05, 1.895354655934398e-01, 3.336277347127701e-03, 0.000000000000000e+00, -8.309090494124877e+00
71, 2.551187880890000e-01, 2.220446049250313e-16, 1.150619011221071e+05, 1.894861122204865e-01, 3.320998642144308e-03, 0.000000000000000e+00, -8.233775947859204e+00
72, 2.631992566980000e-01, 2.220446049250313e-16, 1.150617447842520e+05, 1.894373287515680e-01, 3.305997259752953e-03, 0.000000000000000e+00, -8.160100664273779e+00
73, 2.714757349350000e-01, 2.220446049250313e-16, 1.150615907639916e+05, 1.893892684619802e-01, 3.291257005253221e-03, 0.000000000000000e+00, -8.087991681314982e+00
74, 2.799572875080000e-01, 2.220446049250313e-16, 1.150614408779490e+05, 1.893424982085756e-01, 3.276768069537404e-03, 0.000000000000000e+00, -8.017413378126722e+00
75, 2.886535243940000e-01, 2.220446049250313e-16, 1.150612936524857e+05, 1.892965581590001e-01, 3.262507790966355e-03, 0.000000000000000e+00, -7.948211978145465e+00
76, 2.975746430190000e-01, 2.220446049250313e-16, 1.150611474212388e+05, 1.892509283434640e-01, 3.248454727734852e-03, 0.000000000000000e+00, -7.880271850883999e+00
77, 3.067314743950000e-01, 2.220446049250313e-16, 1.150610031099672e+05, 1.892058976346485e-01, 3.234596887926986e-03, 0.000000000000000e+00, -7.813538835619030e+00
78, 3.161355336610000e-01, 2.220446049250313e-16, 1.150608619932843e+05, 1.891618637612719e-01, 3.220925805433430e-03, 0.000000000000000e+00, -7.747976158520435e+00
79, 3.257990755320000e-01, 2.220446049250313e-16, 1.150607225631883e+05, 1.891183561683854e-01, 3.207423600974456e-03, 0.000000000000000e+00, -7.683468586140151e+00
80, 3.357351552200000e-01, 2.220446049250313e-16, 1.150605836562560e+05, 1.890750118228155e-01, 3.194073588136047e-03, 0.000000000000000e+00, -7.619930417698896e+00
81, 3.459576954530000e-01, 2.220446049250313e-16, 1.150604462516664e+05, 1.890321362664059e-01, 3.180865855325725e-03, 0.000000000000000e+00, -7.557315925674050e+00
82, 3.564815603450000e-01, 2.220446049250313e-16, 1.150603113281197e+05, 1.889900348915227e-01, 3.167793318081875e-03, 0.000000000000000e+00, -7.495593261521760e+00
83, 3.673226369200000e-01, 2.220446049250313e-16, 1.150601777165949e+05, 1.889483429182934e-01, 3.154841985540255e-03, 0.000000000000000e+00, -7.434678270635592e+00
84, 3.784979252510000e-01, 2.220446049250313e-16, 1.150600443991912e+05, 1.889067427222714e-01, 3.141997218688505e-03, 0.000000000000000e+00, -7.374496014930400e+00
85, 3.900256382880000e-01, 2.220446049250313e-16, 1.150599120291566e+05, 1.888654381420883e-01, 3.129249478526874e-03, 0.000000000000000e+00, -7.315002258661868e+00
86, 4.019253126140000e-01, 2.220446049250313e-16, 1.150597815718948e+05, 1.888247304211532e-01, 3.116593131404787e-03, 0.000000000000000e+00, -7.256171485515384e+00
87, 4.142179315450000e-01, 2.220446049250313e-16, 1.150596524665559e+05, 1.887844445525536e-01, 3.104019411516099e-03, 0.000000000000000e+00, -7.197949885802863e+00
88, 4.269260622260000e-01, 2.220446049250313e-16, 1.150595242767627e+05, 1.887444443697016e-01, 3.091518171446629e-03, 0.000000000000000e+00, -7.140282469294278e+00
89, 4.400740085990000e-01, 2.220446049250313e-16, 1.150593978231940e+05, 1.887049859561630e-01, 3.079075622284657e-03, 0.000000000000000e+00, -7.083110089070397e+00
90, 4.536879824320000e-01, 2.220446049250313e-16, 1.150592740010014e+05, 1.886663486339129e-01, 3.066654313434768e-03, 0.000000000000000e+00, -7.026284284303337e+00
91, 4.677962949600000e-01, 2.220446049250313e-16, 1.150591511076418e+05, 1.886280011435932e-01, 3.054165281514528e-03, 0.000000000000000e+00, -6.969342129777321e+00
92, 4.824295720830000e-01, 2.220446049250313e-16, 1.150590271782854e+05, 1.885893303820951e-01, 3.041520783957679e-03, 0.000000000000000e+00, -6.911891300850339e+00
93, 4.976209965680000e-01, 2.220446049250313e-16, 1.150589016147969e+05, 1.885501497080625e-01, 3.028660035936425e-03, 0.000000000000000e+00, -6.853675548662153e+00
94, 5.134065813120000e-01, 2.220446049250313e-16, 1.150587750892191e+05, 1.885106688249065e-01, 3.015565792233468e-03, 0.000000000000000e+00, -6.794656833606346e+00
95, 5.298254783930000e-01, 2.220446049250313e-16, 1.150586473333327e+05, 1.884708040377799e-01, 3.002257119928921e-03, 0.000000000000000e+00, -6.734952833127038e+00
96, 5.469203295140000e-01, 2.220446049250313e-16, 1.150585180570220e+05, 1.884304648193426e-01, 2.988773099523669e-03, 0.000000000000000e+00, -6.674777687663670e+00
97, 5.647376644470000e-01, 2.220446049250313e-16, 1.150583880219588e+05, 1.883898888407317e-01, 2.975135008225228e-03, 0.000000000000000e+00, -6.614256491451624e+00
98, 5.833283553420000e-01, 2.220446049250313e-16, 1.150582582920218e+05, 1.883494080733151e-01, 2.961329872628505e-03, 0.000000000000000e+00, -6.553162780210116e+00
99, 6.027481362320000e-01, 2.220446049250313e-16, 1.150581293599665e+05, 1.883091762759211e-01, 2.947382937030848e-03, 0.000000000000000e+00, -6.491692299750460e+00
100, 6.230581989500000e-01, 2.220446049250313e-16, 1.150580003696270e+05, 1.882689262915923e-01, 2.933322656769440e-03, 0.000000000000000e+00, -6.430025342474901e+00
101, 6.443258788700000e-01, 2.220446049250313e-16, 1.150578717293847e+05, 1.882287855511500e-01, 2.919152116956985e-03, 0.000000000000000e+00, -6.368187110374928e+00
102, 6.666254466970000e-01, 2.220446049250313e-16, 1.150577443477199e+05, 1.881890375356704e-01, 2.904851704035984e-03, 0.000000000000000e+00, -6.306079077949971e+00
103, 6.900390259370000e-01, 2.220446049250313e-16, 1.150576172669671e+05, 1.881493834163717e-01, 2.890413770467912e-03, 0.000000000000000e+00, -6.243679277243371e+00
104, 7.146576599530000e-01, 2.220446049250313e-16, 1.150574904185733e+05, 1.881098018021172e-01, 2.875843980135008e-03, 0.000000000000000e+00, -6.181033716535824e+00
105, 7.405825578610000e-01, 2.220446049250313e-16, 1.150573651162402e+05, 1.880707026186828e-01, 2.861144395703522e-03, 0.000000000000000e+00, -6.118161524461649e+00
106, 7.679265552350000e-01, 2.220446049250313e-16, 1.150572411022970e+05, 1.880320054628236e-01, 2.846305933806926e-03, 0.000000000000000e+00, -6.055021126311878e+00
107, 7.968158341210000e-01, 2.220446049250313e-16, 1.150571177910212e+05, 1.879935275664442e-01, 2.831317694940995e-03, 0.000000000000000e+00, -5.991577353043430e+00
108, 8.273919576770000e-01, 2.220446049250313e-16, 1.150569959064604e+05, 1.879554948604293e-01, 2.816164912847001e-03, 0.000000000000000e+00, -5.927776976915467e+00
109, 8.598142887360000e-01, 2.220446049250313e-16, 1.150568753731005e+05, 1.879178837814418e-01, 2.800831215119970e-03, 0.000000000000000e+00, -5.863554766041490e+00
110, 8.942628795040000e-01, 2.220446049250313e-16, 1.150567562698460e+05, 1.878807189507388e-01, 2.785307577721304e-03, 0.000000000000000e+00, -5.798893064410070e+00
111, 9.309419431120000e-01, 2.220446049250313e-16, 1.150566407694972e+05, 1.878446783662485e-01, 2.769578468308489e-03, 0.000000000000000e+00, -5.733737994787853e+00
112, 9.700840484090000e-01, 2.220446049250313e-16, 1.150565332320176e+05, 1.878111225055174e-01, 2.753616966232225e-03, 0.000000000000000e+00, -5.668001963784258e+00
113, 1.011955220140000e+00, 2.220446049250313e-16, 1.150564324103096e+05, 1.877796622257713e-01, 2.737351279715939e-03, 0.000000000000000e+00, -5.601416530244687e+00
114, 1.054913688830000e+00, 2.220446049250313e-16, 1.150563299868662e+05, 1.877477021424744e-01, 2.721373467235992e-03, 0.000000000000000e+00, -5.536360946753298e+00
115, 1.097872157520000e+00, 2.220446049250313e-16, 1.150562325143059e+05, 1.877172869265753e-01, 2.706048763589155e-03, 0.000000000000000e+00, -5.474308313620097e+00
116, 1.140830626210000e+00, 2.220446049250313e-16, 1.150561441328355e+05, 1.876897084830302e-01, 2.691365934158684e-03, 0.000000000000000e+00, -5.415196814989607e+00
117, 1.183789094900000e+00, 2.220446049250313e-16, 1.150560627549987e+05, 1.876643154445323e-01, 2.677301517874488e-03, 0.000000000000000e+00, -5.358884116416831e+00
118, 1.226747563590000e+00, 2.220446049250313e-16, 1.150559887797089e+05, 1.876412322875428e-01, 2.663826156704734e-03, 0.000000000000000e+00, -5.305209454834905e+00
119, 1.269706032280000e+00, 2.220446049250313e-16, 1.150559229131903e+05, 1.876206793813990e-01, 2.650914686576995e-03, 0.000000000000000e+00, -5.254040465990330e+00
120, 1.312664500970000e+00, 2.220446049250313e-16, 1.150558632925383e+05, 1.876020754276698e-01, 2.638534410422082e-03, 0.000000000000000e+00, -5.205212975099805e+00
121, 1.355622969660000e+00, 2.220446049250313e-16, 1.150558085437134e+05, 1.875849916727756e-01, 2.626645602309231e-03, 0.000000000000000e+00, -5.158537109789261e+00
122, 1.398581438350000e+00, 2.220446049250313e-16, 1.150557596714553e+05, 1.875697416344254e-01, 2.615214458761470e-03, 0.000000000000000e+00, -5.113854779177844e+00
123, 1.441539907040000e+00, 2.220446049250313e-16, 1.150557171553346e+05, 1.875564749572496e-01, 2.604215991828126e-03, 0.000000000000000e+00, -5.071048889648500e+00
124, 1.484498375720000e+00, 2.220446049250313e-16, 1.150556794408959e+05, 1.875447065909491e-01, 2.593623700216687e-03, 0.000000000000000e+00, -5.029995513316938e+00
125, 1.527456844410000e+00, 2.220446049250313e-16, 1.150556452261016e+05, 1.875340302492775e-01, 2.583406923763621e-03, 0.000000000000000e+00, -4.990555173872910e+00
126, 1.570415313100000e+00, 2.220446049250313e-16, 1.150556150439333e+05, 1.875246122432077e-01, 2.573538442620662e-03, 0.000000000000000e+00, -4.952605800259334e+00
127, 1.613373781790000e+00, 2.220446049250313e-16, 1.150555899374181e+05, 1.875167780375918e-01, 2.563999668491855e-03, 0.000000000000000e+00, -4.916062258078878e+00
128, 1.656332250480000e+00, 2.220446049250313e-16, 1.150555693519207e+05, 1.875103545646903e-01, 2.554776307840784e-03, 0.000000000000000e+00, -4.880855512896765e+00
129, 1.699290719170000e+00, 2.220446049250313e-16, 1.150555526193138e+05, 1.875051333429432e-01, 2.545850798855622e-03, 0.000000000000000e+00, -4.846911865317162e+00
130, 1.742249187860000e+00, 2.220446049250313e-16, 1.150555420592300e+05, 1.875018381876100e-01, 2.537186987924895e-03, 0.000000000000000e+00, -4.814069527869161e+00
131, 1.785207656550000e+00, 2.220446049250313e-16, 1.150555383527957e+05, 1.875006816364726e-01, 2.528758569681354e-03, 0.000000000000000e+00, -4.782227956229012e+00
132, 1.828166125240000e+00, 2.220446049250313e-16, 1.150555548344436e+05, 1.875058245492787e-01, 2.520545065099978e-03, 0.000000000000000e+00, -4.751324748902713e+00
133, 1.871124593930000e+00, 2.220446049250313e-16, 1.150555308320235e+05, 1.874983348641155e-01, 2.512434132239498e-03, 0.000000000000000e+00, -4.720946474153346e+00
134, 1.914083062620000e+00, 2.220446049250313e-16, 1.150556588508369e+05, 1.875382816946507e-01, 2.504594922286620e-03, 0.000000000000000e+00, -4.691548646010658e+00
135, 1.957041531310000e+00, 2.220446049250313e-16, 1.150547289357162e+05, 1.872481121425544e-01, 2.495829238387189e-03, 0.000000000000000e+00, -4.659871445164238e+00
136, 2.000000000000000e+00, 2.220446049250313e-16, 1.150642364381587e+05, 1.902148213226451e-01, 2.492165054476804e-03, 0.000000000000000e+00, -4.643555953154429e+00
