"Global_Index", "x_coord", "y_coord", "Pressure", "Pressure_Coefficient", "Skin_Friction_Coefficient_X", "Skin_Friction_Coefficient_Y", "Heat_Flux"
24, 0.000000000000000e+00, 2.220446049250313e-16, 1.150857034456393e+05, 1.969133595082866e-01, 1.212964289918415e-02, 0.000000000000000e+00, -9.740599171841301e+01
25, 4.011887597850000e-03, 2.220446049250313e-16, 1.150560571598436e+05, 1.876625695393172e-01, 3.273025472645433e-03, 0.000000000000000e+00, -1.053135218423494e+01
26, 8.056205200680001e-03, 2.220446049250313e-16, 1.150637844524263e+05, 1.900737842595696e-01, 2.515469460626424e-03, 0.000000000000000e+00, -3.492133154271429e+00
27, 1.213422760060000e-02, 2.220446049250313e-16, 1.150626283452518e+05, 1.897130340216820e-01, 2.213748290836638e-03, 0.000000000000000e+00, -2.703297808448397e+00
28, 1.624726554020000e-02, 2.220446049250313e-16, 1.150629998479070e+05, 1.898289572459428e-01, 1.996328401370358e-03, 0.000000000000000e+00, -2.198589554073180e+00
29, 2.039666755470000e-02, 2.220446049250313e-16, 1.150624755265254e+05, 1.896653486573039e-01, 1.821260032447309e-03, 0.000000000000000e+00, -1.829996508956588e+00
30, 2.458382190520000e-02, 2.220446049250313e-16, 1.150611178288030e+05, 1.892416943567919e-01, 1.673326711807771e-03, 0.000000000000000e+00, -1.544808504143869e+00
31, 2.881015861120000e-02, 2.220446049250313e-16, 1.150593865768952e+05, 1.887014766751259e-01, 1.557187828685349e-03, 0.000000000000000e+00, -1.338107439189008e+00
32, 3.307715158840000e-02, 2.220446049250313e-16, 1.150586992620479e+05, 1.884870078091493e-01, 1.500687420495408e-03, 0.000000000000000e+00, -1.242370287468352e+00
33, 3.738632089750000e-02, 2.220446049250313e-16, 1.150606905366255e+05, 1.891083626397423e-01, 1.560655418401070e-03, 0.000000000000000e+00, -1.369776264629917e+00
34, 4.173923511390000e-02, 2.220446049250313e-16, 1.150657850211069e+05, 1.906980392104434e-01, 1.819114181313262e-03, 0.000000000000000e+00, -1.917360340942088e+00
35, 4.613751382460000e-02, 2.220446049250313e-16, 1.150727622877077e+05, 1.928752167606353e-01, 2.353641875220545e-03, 0.000000000000000e+00, -3.628052605655698e+00
36, 5.058283026210000e-02, 2.220446049250313e-16, 1.150782564265133e+05, 1.945896009671913e-01, 3.077578860863865e-03, 0.000000000000000e+00, -7.145635350981944e+00
37, 5.507691408390000e-02, 2.220446049250313e-16, 1.150798854468222e+05, 1.950979184285118e-01, 3.689393433687877e-03, 0.000000000000000e+00, -1.050968172618714e+01
38, 5.962155430870000e-02, 2.220446049250313e-16, 1.150787355695872e+05, 1.947391121731800e-01, 4.024568337401198e-03, 0.000000000000000e+00, -1.231102608803075e+01
39, 6.421860241959999e-02, 2.220446049250313e-16, 1.150766789196433e+05, 1.940973576949836e-01, 4.139772061929862e-03, 0.000000000000000e+00, -1.285800904605312e+01
40, 6.886997564640000e-02, 2.220446049250313e-16, 1.150746878922953e+05, 1.934760800096252e-01, 4.144276461640242e-03, 0.000000000000000e+00, -1.280631305097021e+01
41, 7.357766043930000e-02, 2.220446049250313e-16, 1.150730294891520e+05, 1.929585939653800e-01, 4.107181186220128e-03, 0.000000000000000e+00, -1.254654828525854e+01
42, 7.834371614890000e-02, 2.220446049250313e-16, 1.150716922899034e+05, 1.925413359830352e-01, 4.057859569457836e-03, 0.000000000000000e+00, -1.223163096225608e+01
43, 8.317027892560000e-02, 2.220446049250313e-16, 1.150706114504570e+05, 1.922040721929749e-01, 4.007545851599220e-03, 0.000000000000000e+00, -1.192317294635942e+01
44, 8.805956585650000e-02, 2.220446049250313e-16, 1.150697277671121e+05, 1.919283287464318e-01, 3.960048657244516e-03, 0.000000000000000e+00, -1.164063347030444e+01
45, 9.301387935570000e-02, 2.220446049250313e-16, 1.150689926387756e+05, 1.916989402190258e-01, 3.916164842765672e-03, 0.000000000000000e+00, -1.138529567861188e+01
46, 9.803561182770000e-02, 2.220446049250313e-16, 1.150683659701962e+05, 1.915033953386865e-01, 3.875718221140727e-03, 0.000000000000000e+00, -1.115379663179729e+01
47, 1.031272506240000e-01, 2.220446049250313e-16, 1.150678226422982e+05, 1.913338559804445e-01, 3.838363094939063e-03, 0.000000000000000e+00, -1.094357379715335e+01
48, 1.082913833170000e-01, 2.220446049250313e-16, 1.150673422243662e+05, 1.911839469693481e-01, 3.803580956752668e-03, 0.000000000000000e+00, -1.074981790254150e+01
49, 1.135307033110000e-01, 2.220446049250313e-16, 1.150669118254832e+05, 1.910496458397986e-01, 3.771041578460285e-03, 0.000000000000000e+00, -1.057075434710429e+01
50, 1.188480158220000e-01, 2.220446049250313e-16, 1.150665208640190e+05, 1.909276507131025e-01, 3.740392826225449e-03, 0.000000000000000e+00, -1.040339405535864e+01
51, 1.242462442510000e-01, 2.220446049250313e-16, 1.150661620850337e+05, 1.908156977669107e-01, 3.711420494448583e-03, 0.000000000000000e+00, -1.024656218210822e+01
52, 1.297284369870000e-01, 2.220446049250313e-16, 1.150658309052917e+05, 1.907123568541155e-01, 3.683926506476790e-03, 0.000000000000000e+00, -1.009879793328609e+01
53, 1.352977746630000e-01, 2.220446049250313e-16, 1.150655214599202e+05, 1.906157979071151e-01, 3.657749809709224e-03, 0.000000000000000e+00, -9.958961947058819e+00
54, 1.409575779210000e-01, 2.220446049250313e-16, 1.150652329419816e+05, 1.905257691301573e-01, 3.632779410443646e-03, 0.000000000000000e+00, -9.826517294113959e+00
55, 1.467113157020000e-01, 2.220446049250313e-16, 1.150649610511239e+05, 1.904409286467025e-01, 3.608870583101267e-03, 0.000000000000000e+00, -9.700318224723375e+00
56, 1.525626141330000e-01, 2.220446049250313e-16, 1.150647036405208e+05, 1.903606065638184e-01, 3.585929566911609e-03, 0.000000000000000e+00, -9.579882090708040e+00
57, 1.585152660350000e-01, 2.220446049250313e-16, 1.150644600878098e+05, 1.902846086802490e-01, 3.563874923321916e-03, 0.000000000000000e+00, -9.464726064842104e+00
58, 1.645732411200000e-01, 2.220446049250313e-16, 1.150642271433910e+05, 1.902119209949424e-01, 3.542616176152760e-03, 0.000000000000000e+00, -9.354203503075311e+00
59, 1.707406969350000e-01, 2.220446049250313e-16, 1.150640045066744e+05, 1.901424497121276e-01, 3.522094776453710e-03, 0.000000000000000e+00, -9.248023910988785e+00
60, 1.770219906140000e-01, 2.220446049250313e-16, 1.150637919780104e+05, 1.900761325334294e-01, 3.502255567318206e-03, 0.000000000000000e+00, -9.145870934797518e+00
61, 1.834216915030000e-01, 2.220446049250313e-16, 1.150635868466687e+05, 1.900121236059381e-01, 3.483030859097333e-03, 0.000000000000000e+00, -9.047275500739717e+00
62, 1.899445947530000e-01, 2.220446049250313e-16, 1.150633885521218e+05, 1.899502480233282e-01, 3.464375946245899e-03, 0.000000000000000e+00, -8.952000957128035e+00
63, 1.965957359540000e-01, 2.220446049250313e-16, 1.150631980258361e+05, 1.898907964392674e-01, 3.446258437255935e-03, 0.000000000000000e+00, -8.859907541789513e+00
64, 2.033804069020000e-01, 2.220446049250313e-16, 1.150630134059462e+05, 1.898331878795533e-01, 3.428626239080123e-03, 0.000000000000000e+00, -8.770626742580232e+00
65, 2.103041726230000e-01, 2.220446049250313e-16, 1.150628329934203e+05, 1.897768921804457e-01, 3.411439793524216e-03, 0.000000000000000e+00, -8.683931221803224e+00
66, 2.173728897500000e-01, 2.220446049250313e-16, 1.150626583691476e+05, 1.897224026406322e-01, 3.394679011903815e-03, 0.000000000000000e+00, -8.599761036352264e+00
67, 2.245927263960000e-01, 2.220446049250313e-16, 1.150624891451621e+05, 1.896695981996803e-01, 3.378310323228806e-03, 0.000000000000000e+00, -8.517890898935137e+00
68, 2.319701836540000e-01, 2.220446049250313e-16, 1.150623227741239e+05, 1.896176839888219e-01, 3.362296937386397e-03, 0.000000000000000e+00, -8.438090748845894e+00
69, 2.395121189030000e-01, 2.220446049250313e-16, 1.150621596482645e+05, 1.895667823995276e-01, 3.346618462131519e-03, 0.000000000000000e+00, -8.360267934970810e+00
70, 2.472257710730000e-01, 2.220446049250313e-16, 1.150620014233751e+05, 1.895174101027921e-01, 3.331261098281930e-03, 0.000000000000000e+00, -8.284368508044100e+00
71, 2.551187880890000e-01, 2.220446049250313e-16, 1.150618464748884e+05, 1.894690601706371e-01, 3.316195714505427e-03, 0.000000000000000e+00, -8.210192090117534e+00
72, 2.631992566980000e-01, 2.220446049250313e-16, 1.150616930923285e+05, 1.894211988683588e-01, 3.301396381166137e-03, 0.000000000000000e+00, -8.137594684824299e+00
73, 2.714757349350000e-01, 2.220446049250313e-16, 1.150615425140143e+05, 1.893742125993670e-01, 3.286850036367409e-03, 0.000000000000000e+00, -8.066524200588169e+00
74, 2.799572875080000e-01, 2.220446049250313e-16, 1.150613957525331e+05, 1.893284173302128e-01, 3.272544113502259e-03, 0.000000000000000e+00, -7.996915401799405e+00
75, 2.886535243940000e-01, 2.220446049250313e-16, 1.150612507783159e+05, 1.892831797566478e-01, 3.258455584755428e-03, 0.000000000000000e+00, -7.928618607573501e+00
76, 2.975746430190000e-01, 2.220446049250313e-16, 1.150611067224824e+05, 1.892382287543925e-01, 3.244565765944402e-03, 0.000000000000000e+00, -7.861538458843039e+00
77, 3.067314743950000e-01, 2.220446049250313e-16, 1.150609649894280e+05, 1.891940025492322e-01, 3.230864996460003e-03, 0.000000000000000e+00, -7.795634627050585e+00
78, 3.161355336610000e-01, 2.220446049250313e-16, 1.150608261015720e+05, 1.891506641562282e-01, 3.217343062283867e-03, 0.000000000000000e+00, -7.730851218647569e+00
79, 3.257990755320000e-01, 2.220446049250313e-16, 1.150606884396910e+05, 1.891077083149288e-01, 3.203982512844023e-03, 0.000000000000000e+00, -7.667082138651471e+00
80, 3.357351552200000e-01, 2.220446049250313e-16, 1.150605513607895e+05, 1.890649343858232e-01, 3.190767957615164e-03, 0.000000000000000e+00, -7.604248421957572e+00
81, 3.459576954530000e-01, 2.220446049250313e-16, 1.150604159929218e+05, 1.890226943655461e-01, 3.177690745960512e-03, 0.000000000000000e+00, -7.542313056979085e+00
82, 3.564815603450000e-01, 2.220446049250313e-16, 1.150602828182375e+05, 1.889811387034960e-01, 3.164742256363306e-03, 0.000000000000000e+00, -7.481230249265615e+00
83, 3.673226369200000e-01, 2.220446049250313e-16, 1.150601505849882e+05, 1.889398768056577e-01, 3.151908676656959e-03, 0.000000000000000e+00, -7.420921261020686e+00
84, 3.784979252510000e-01, 2.220446049250313e-16, 1.150600186952525e+05, 1.888987220973519e-01, 3.139176383669165e-03, 0.000000000000000e+00, -7.361316488594380e+00
85, 3.900256382880000e-01, 2.220446049250313e-16, 1.150598879332148e+05, 1.888579192745321e-01, 3.126537095543951e-03, 0.000000000000000e+00, -7.302379432099430e+00
86, 4.019253126140000e-01, 2.220446049250313e-16, 1.150597588805398e+05, 1.888176498390979e-01, 3.113984463052595e-03, 0.000000000000000e+00, -7.244076684751415e+00
87, 4.142179315450000e-01, 2.220446049250313e-16, 1.150596309430852e+05, 1.887777283956603e-01, 3.101510089686536e-03, 0.000000000000000e+00, -7.186358956661470e+00
88, 4.269260622260000e-01, 2.220446049250313e-16, 1.150595040455943e+05, 1.887381314611855e-01, 3.089104135322143e-03, 0.000000000000000e+00, -7.129173530159804e+00
89, 4.400740085990000e-01, 2.220446049250313e-16, 1.150593790793401e+05, 1.886991371474039e-01, 3.076750928400702e-03, 0.000000000000000e+00, -7.072457162834978e+00
90, 4.536879824320000e-01, 2.220446049250313e-16, 1.150592565164234e+05, 1.886608927680503e-01, 3.064405181879487e-03, 0.000000000000000e+00, -7.016017129656641e+00
91, 4.677962949600000e-01, 2.220446049250313e-16, 1.150591343731517e+05, 1.886227793342079e-01, 3.051973916694754e-03, 0.000000000000000e+00, -6.959369355015637e+00
92, 4.824295720830000e-01, 2.220446049250313e-16, 1.150590110148535e+05, 1.885842867650073e-01, 3.039375548754876e-03, 0.000000000000000e+00, -6.902165024101728e+00
93, 4.976209965680000e-01, 2.220446049250313e-16, 1.150588860744561e+05, 1.885453005195549e-01, 3.026555114470557e-03, 0.000000000000000e+00, -6.844169312988709e+00
94, 5.134065813120000e-01, 2.220446049250313e-16, 1.150587601433595e+05, 1.885060051375333e-01, 3.013503616949690e-03, 0.000000000000000e+00, -6.785384829875738e+00
95, 5.298254783930000e-01, 2.220446049250313e-16, 1.150586329387691e+05, 1.884663123761186e-01, 3.000246305313274e-03, 0.000000000000000e+00, -6.725956538886496e+00
96, 5.469203295140000e-01, 2.220446049250313e-16, 1.150585043525445e+05, 1.884261884913142e-01, 2.986823333296535e-03, 0.000000000000000e+00, -6.666103004105018e+00
97, 5.647376644470000e-01, 2.220446049250313e-16, 1.150583751398012e+05, 1.883858691083851e-01, 2.973249207207672e-03, 0.000000000000000e+00, -6.605915007956378e+00
98, 5.833283553420000e-01, 2.220446049250313e-16, 1.150582462341200e+05, 1.883456455407034e-01, 2.959503677137112e-03, 0.000000000000000e+00, -6.545098086781933e+00
99, 6.027481362320000e-01, 2.220446049250313e-16, 1.150581179568426e+05, 1.883056180593840e-01, 2.945619580057406e-03, 0.000000000000000e+00, -6.483942401372484e+00
100, 6.230581989500000e-01, 2.220446049250313e-16, 1.150579895073611e+05, 1.882655368437016e-01, 2.931624611814346e-03, 0.000000000000000e+00, -6.422597321802997e+00
101, 6.443258788700000e-01, 2.220446049250313e-16, 1.150578617239576e+05, 1.882256634701904e-01, 2.917520329214299e-03, 0.000000000000000e+00, -6.361086145079876e+00
102, 6.666254466970000e-01, 2.220446049250313e-16, 1.150577351885611e+05, 1.881861795232101e-01, 2.903284040567738e-03, 0.000000000000000e+00, -6.299289026295528e+00
103, 6.900390259370000e-01, 2.220446049250313e-16, 1.150576087423057e+05, 1.881467233916902e-01, 2.888910430137022e-03, 0.000000000000000e+00, -6.237200039177520e+00
104, 7.146576599530000e-01, 2.220446049250313e-16, 1.150574826133006e+05, 1.881073662545729e-01, 2.874405944869104e-03, 0.000000000000000e+00, -6.174868906701757e+00
105, 7.405825578610000e-01, 2.220446049250313e-16, 1.150573579744069e+05, 1.880684740899604e-01, 2.859770270376522e-03, 0.000000000000000e+00, -6.112301167798932e+00
106, 7.679265552350000e-01, 2.220446049250313e-16, 1.150572344806044e+05, 1.880299392381610e-01, 2.844992941394288e-03, 0.000000000000000e+00, -6.049449539155344e+00
107, 7.968158341210000e-01, 2.220446049250313e-16, 1.150571117197934e+05, 1.879916331080980e-01, 2.830063559551751e-03, 0.000000000000000e+00, -5.986283382064371e+00
108, 8.273919576770000e-01, 2.220446049250313e-16, 1.150569903316304e+05, 1.879537552974410e-01, 2.814966959453465e-03, 0.000000000000000e+00, -5.922746632742794e+00
109, 8.598142887360000e-01, 2.220446049250313e-16, 1.150568701924234e+05, 1.879162672094225e-01, 2.799687139308990e-03, 0.000000000000000e+00, -5.858775795865526e+00
110, 8.942628795040000e-01, 2.220446049250313e-16, 1.150567514923206e+05, 1.878792281776864e-01, 2.784216472120154e-03, 0.000000000000000e+00, -5.794360715160667e+00
111, 9.309419431120000e-01, 2.220446049250313e-16, 1.150566365146281e+05, 1.878433506822309e-01, 2.768539473089083e-03, 0.000000000000000e+00, -5.729446660993195e+00
112, 9.700840484090000e-01, 2.220446049250313e-16, 1.150565295028635e+05, 1.878099588649436e-01, 2.752629051704081e-03, 0.000000000000000e+00, -5.663945373080240e+00
113, 1.011955220140000e+00, 2.220446049250313e-16, 1.150564290156636e+05, 1.877786029646479e-01, 2.736413048555847e-03, 0.000000000000000e+00, -5.597586342571430e+00
114, 1.054913688830000e+00, 2.220446049250313e-16, 1.150563270027130e+05, 1.877467709710367e-01, 2.720482510910354e-03, 0.000000000000000e+00, -5.532744725690828e+00
115, 1.097872157520000e+00, 2.220446049250313e-16, 1.150562300336390e+05, 1.877165128623912e-01, 2.705202740989949e-03, 0.000000000000000e+00, -5.470894280591318e+00
116, 1.140830626210000e+00, 2.220446049250313e-16, 1.150561419851052e+05, 1.876890383079532e-01, 2.690561852551010e-03, 0.000000000000000e+00, -5.411969869858303e+00
117, 1.183789094900000e+00, 2.220446049250313e-16, 1.150560608948669e+05, 1.876637350113163e-01, 2.676535712255656e-03, 0.000000000000000e+00, -5.355826641454843e+00
118, 1.226747563590000e+00, 2.220446049250313e-16, 1.150559872413022e+05, 1.876407522450544e-01, 2.663095225869158e-03, 0.000000000000000e+00, -5.302305750351653e+00
119, 1.269706032280000e+00, 2.220446049250313e-16, 1.150559215990333e+05, 1.876202693134973e-01, 2.650215333336977e-03, 0.000000000000000e+00, -5.251275526607110e+00
120, 1.312664500970000e+00, 2.220446049250313e-16, 1.150558621015368e+05, 1.876017037890451e-01, 2.637863352288208e-03, 0.000000000000000e+00, -5.202572005660905e+00
121, 1.355622969660000e+00, 2.220446049250313e-16, 1.150558075113223e+05, 1.875846695267387e-01, 2.626000157164127e-03, 0.000000000000000e+00, -5.156008132052063e+00
122, 1.398581438350000e+00, 2.220446049250313e-16, 1.150557588562910e+05, 1.875694872715676e-01, 2.614592775107162e-03, 0.000000000000000e+00, -5.111429521992538e+00
123, 1.441539907040000e+00, 2.220446049250313e-16, 1.150557164738805e+05, 1.875562623171783e-01, 2.603616366834788e-03, 0.000000000000000e+00, -5.068719593933362e+00
124, 1.484498375720000e+00, 2.220446049250313e-16, 1.150556788011619e+05, 1.875445069691500e-01, 2.593044274415712e-03, 0.000000000000000e+00, -5.027753776097148e+00
125, 1.527456844410000e+00, 2.220446049250313e-16, 1.150556446022592e+05, 1.875338355862896e-01, 2.582846083194517e-03, 0.000000000000000e+00, -4.988393768173814e+00
126, 1.570415313100000e+00, 2.220446049250313e-16, 1.150556145271783e+05, 1.875244509956105e-01, 2.572995270193812e-03, 0.000000000000000e+00, -4.950520469633008e+00
127, 1.613373781790000e+00, 2.220446049250313e-16, 1.150555896116282e+05, 1.875166763784979e-01, 2.563473851891817e-03, 0.000000000000000e+00, -4.914051146433420e+00
128, 1.656332250480000e+00, 2.220446049250313e-16, 1.150555691353196e+05, 1.875102869767504e-01, 2.554267445862528e-03, 0.000000000000000e+00, -4.878916357342683e+00
129, 1.699290719170000e+00, 2.220446049250313e-16, 1.150555524336863e+05, 1.875050754199867e-01, 2.545357652217643e-03, 0.000000000000000e+00, -4.845040040766458e+00
130, 1.742249187860000e+00, 2.220446049250313e-16, 1.150555418921744e+05, 1.875017860597868e-01, 2.536706365571677e-03, 0.000000000000000e+00, -4.812249765059768e+00
131, 1.785207656550000e+00, 2.220446049250313e-16, 1.150555382773267e+05, 1.875006580872164e-01, 2.528291789033372e-03, 0.000000000000000e+00, -4.780467404692839e+00
132, 1.828166125240000e+00, 2.220446049250313e-16, 1.150555549064433e+05, 1.875058470159946e-01, 2.520091897891488e-03, 0.000000000000000e+00, -4.749621148613218e+00
133, 1.871124593930000e+00, 2.220446049250313e-16, 1.150555309975354e+05, 1.874983865102457e-01, 2.511993814176577e-03, 0.000000000000000e+00, -4.719296471130983e+00
134, 1.914083062620000e+00, 2.220446049250313e-16, 1.150556590382737e+05, 1.875383401822009e-01, 2.504166452661570e-03, 0.000000000000000e+00, -4.689947964374730e+00
135, 1.957041531310000e+00, 2.220446049250313e-16, 1.150547284801198e+05, 1.872479699788241e-01, 2.495410751531838e-03, 0.000000000000000e+00, -4.658313691372964e+00
136, 2.000000000000000e+00, 2.220446049250313e-16, 1.150642410945857e+05, 1.902162743083072e-01, 2.491758671947904e-03, 0.000000000000000e+00, -4.642044622647195e+00
