"Global_Index", "x_coord", "y_coord", "Pressure", "Pressure_Coefficient", "Skin_Friction_Coefficient_X", "Skin_Friction_Coefficient_Y", "Heat_Flux"
24, 0.000000000000000e+00, 2.220446049250313e-16, 1.149156206012148e+05, 1.438409212966392e-01, 1.256928877372994e-02, 0.000000000000000e+00, -1.044477596610977e+02
25, 4.011887597850000e-03, 2.220446049250313e-16, 1.148845351247271e+05, 1.341410480627684e-01, 3.409835464142210e-03, 0.000000000000000e+00, -1.133074460803822e+01
26, 8.056205200680001e-03, 2.220446049250313e-16, 1.148929164354309e+05, 1.367563417801418e-01, 2.619810854925636e-03, 0.000000000000000e+00, -3.787883958481759e+00
27, 1.213422760060000e-02, 2.220446049250313e-16, 1.148918963715235e+05, 1.364380423133098e-01, 2.304260393582410e-03, 0.000000000000000e+00, -2.929012157415458e+00
28, 1.624726554020000e-02, 2.220446049250313e-16, 1.148924638684642e+05, 1.366151233494779e-01, 2.076536020946508e-03, 0.000000000000000e+00, -2.378922388913930e+00
29, 2.039666755470000e-02, 2.220446049250313e-16, 1.148920437411706e+05, 1.364840273538349e-01, 1.892662262630945e-03, 0.000000000000000e+00, -1.976397170288788e+00
30, 2.458382190520000e-02, 2.220446049250313e-16, 1.148907041176794e+05, 1.360660129138405e-01, 1.736830419090203e-03, 0.000000000000000e+00, -1.664370268622075e+00
31, 2.881015861120000e-02, 2.220446049250313e-16, 1.148889923600147e+05, 1.355318781914275e-01, 1.615003263244224e-03, 0.000000000000000e+00, -1.439394332074002e+00
32, 3.307715158840000e-02, 2.220446049250313e-16, 1.148885325466030e+05, 1.353883985890975e-01, 1.559710425282120e-03, 0.000000000000000e+00, -1.342062263595921e+00
33, 3.738632089750000e-02, 2.220446049250313e-16, 1.148911469695494e+05, 1.362041998579110e-01, 1.637507123354580e-03, 0.000000000000000e+00, -1.509431374504991e+00
34, 4.173923511390000e-02, 2.220446049250313e-16, 1.148971852970173e+05, 1.380883920145151e-01, 1.943443553334671e-03, 0.000000000000000e+00, -2.195059358228296e+00
35, 4.613751382460000e-02, 2.220446049250313e-16, 1.149050304465256e+05, 1.405363826625574e-01, 2.557877528659453e-03, 0.000000000000000e+00, -4.388301539418872e+00
36, 5.058283026210000e-02, 2.220446049250313e-16, 1.149106905939142e+05, 1.423025679798664e-01, 3.345804168250093e-03, 0.000000000000000e+00, -8.549366711670926e+00
37, 5.507691408390000e-02, 2.220446049250313e-16, 1.149120368359176e+05, 1.427226476521354e-01, 3.963241873934927e-03, 0.000000000000000e+00, -1.212280234058599e+01
38, 5.962155430870000e-02, 2.220446049250313e-16, 1.149106863313412e+05, 1.423012378919061e-01, 4.273041683319555e-03, 0.000000000000000e+00, -1.384396440230014e+01
39, 6.421860241959999e-02, 2.220446049250313e-16, 1.149086242908518e+05, 1.416578013546518e-01, 4.363380445226001e-03, 0.000000000000000e+00, -1.425989723693266e+01
40, 6.886997564640000e-02, 2.220446049250313e-16, 1.149067495570827e+05, 1.410728117723019e-01, 4.351980535855973e-03, 0.000000000000000e+00, -1.410867648391999e+01
41, 7.357766043930000e-02, 2.220446049250313e-16, 1.149052642252513e+05, 1.406093306839437e-01, 4.305355192918762e-03, 0.000000000000000e+00, -1.377662759457828e+01
42, 7.834371614890000e-02, 2.220446049250313e-16, 1.149041299340787e+05, 1.402553878840421e-01, 4.250463233635681e-03, 0.000000000000000e+00, -1.341404604248248e+01
43, 8.317027892560000e-02, 2.220446049250313e-16, 1.149032679029302e+05, 1.399864007617956e-01, 4.196641710379549e-03, 0.000000000000000e+00, -1.307138116112455e+01
44, 8.805956585650000e-02, 2.220446049250313e-16, 1.149026107104991e+05, 1.397813312569229e-01, 4.146742727525363e-03, 0.000000000000000e+00, -1.276258506828737e+01
45, 9.301387935570000e-02, 2.220446049250313e-16, 1.149021087469043e+05, 1.396246991641358e-01, 4.101080430821782e-03, 0.000000000000000e+00, -1.248625703387835e+01
46, 9.803561182770000e-02, 2.220446049250313e-16, 1.149017204465631e+05, 1.395035344109662e-01, 4.059083439487318e-03, 0.000000000000000e+00, -1.223590286933720e+01
47, 1.031272506240000e-01, 2.220446049250313e-16, 1.149014204879709e+05, 1.394099357067296e-01, 4.020207332523519e-03, 0.000000000000000e+00, -1.200761470202507e+01
48, 1.082913833170000e-01, 2.220446049250313e-16, 1.149011891675054e+05, 1.393377547577584e-01, 3.983848548691443e-03, 0.000000000000000e+00, -1.179574827795607e+01
49, 1.135307033110000e-01, 2.220446049250313e-16, 1.149010149438093e+05, 1.392833902133649e-01, 3.949708047921927e-03, 0.000000000000000e+00, -1.159908952866401e+01
50, 1.188480158220000e-01, 2.220446049250313e-16, 1.149008873409393e+05, 1.392435731732758e-01, 3.917469318959949e-03, 0.000000000000000e+00, -1.141470044679712e+01
51, 1.242462442510000e-01, 2.220446049250313e-16, 1.149007995929009e+05, 1.392161923850485e-01, 3.886938924960956e-03, 0.000000000000000e+00, -1.124156926141730e+01
52, 1.297284369870000e-01, 2.220446049250313e-16, 1.149007468421520e+05, 1.391997321072913e-01, 3.857888757869769e-03, 0.000000000000000e+00, -1.107802721925175e+01
53, 1.352977746630000e-01, 2.220446049250313e-16, 1.149007232869197e+05, 1.391923819620248e-01, 3.830102955509685e-03, 0.000000000000000e+00, -1.092237311624583e+01
54, 1.409575779210000e-01, 2.220446049250313e-16, 1.149007286966918e+05, 1.391940700205637e-01, 3.803502881572599e-03, 0.000000000000000e+00, -1.077440048081059e+01
55, 1.467113157020000e-01, 2.220446049250313e-16, 1.149007592352107e+05, 1.392035992218260e-01, 3.777995185086538e-03, 0.000000000000000e+00, -1.063326480298461e+01
56, 1.525626141330000e-01, 2.220446049250313e-16, 1.149008132813877e+05, 1.392204637233522e-01, 3.753509567246838e-03, 0.000000000000000e+00, -1.049856711069190e+01
57, 1.585152660350000e-01, 2.220446049250313e-16, 1.149008902849330e+05, 1.392444918133925e-01, 3.729963174026029e-03, 0.000000000000000e+00, -1.036974967656305e+01
58, 1.645732411200000e-01, 2.220446049250313e-16, 1.149009871134611e+05, 1.392747060663060e-01, 3.707260072705666e-03, 0.000000000000000e+00, -1.024610472410497e+01
59, 1.707406969350000e-01, 2.220446049250313e-16, 1.149011039936737e+05, 1.393111772217525e-01, 3.685336421599399e-03, 0.000000000000000e+00, -1.012729554704831e+01
60, 1.770219906140000e-01, 2.220446049250313e-16, 1.149012410010568e+05, 1.393539288343688e-01, 3.664130520617040e-03, 0.000000000000000e+00, -1.001294224477990e+01
61, 1.834216915030000e-01, 2.220446049250313e-16, 1.149013956009735e+05, 1.394021699991494e-01, 3.643569579637589e-03, 0.000000000000000e+00, -9.902525579676412e+00
62, 1.899445947530000e-01, 2.220446049250313e-16, 1.149015677198582e+05, 1.394558777608151e-01, 3.623605523488122e-03, 0.000000000000000e+00, -9.795780217147900e+00
63, 1.965957359540000e-01, 2.220446049250313e-16, 1.149017587644247e+05, 1.395154910686127e-01, 3.604202358333034e-03, 0.000000000000000e+00, -9.692533512721011e+00
64, 2.033804069020000e-01, 2.220446049250313e-16, 1.149019671832428e+05, 1.395805258161177e-01, 3.585304653981504e-03, 0.000000000000000e+00, -9.592380596995211e+00
65, 2.103041726230000e-01, 2.220446049250313e-16, 1.149021917544550e+05, 1.396506007365066e-01, 3.566870776270830e-03, 0.000000000000000e+00, -9.495072204321644e+00
66, 2.173728897500000e-01, 2.220446049250313e-16, 1.149024348264064e+05, 1.397264486044565e-01, 3.548879056445644e-03, 0.000000000000000e+00, -9.400539351294734e+00
67, 2.245927263960000e-01, 2.220446049250313e-16, 1.149026964076542e+05, 1.398080720901075e-01, 3.531291752388466e-03, 0.000000000000000e+00, -9.308514672586936e+00
68, 2.319701836540000e-01, 2.220446049250313e-16, 1.149029743046022e+05, 1.398947867064614e-01, 3.514069263444369e-03, 0.000000000000000e+00, -9.218744562690786e+00
69, 2.395121189030000e-01, 2.220446049250313e-16, 1.149032697483175e+05, 1.399869765941395e-01, 3.497189577266419e-03, 0.000000000000000e+00, -9.131126790655321e+00
70, 2.472257710730000e-01, 2.220446049250313e-16, 1.149035850831194e+05, 1.400853732716400e-01, 3.480636244882435e-03, 0.000000000000000e+00, -9.045584797541913e+00
71, 2.551187880890000e-01, 2.220446049250313e-16, 1.149039191467522e+05, 1.401896140701174e-01, 3.464377912893292e-03, 0.000000000000000e+00, -8.961897931479996e+00
72, 2.631992566980000e-01, 2.220446049250313e-16, 1.149042710674029e+05, 1.402994269501336e-01, 3.448387352767238e-03, 0.000000000000000e+00, -8.879911384038005e+00
73, 2.714757349350000e-01, 2.220446049250313e-16, 1.149046430441510e+05, 1.404154981097459e-01, 3.432649923048943e-03, 0.000000000000000e+00, -8.799562049991872e+00
74, 2.799572875080000e-01, 2.220446049250313e-16, 1.149050367626409e+05, 1.405383535352620e-01, 3.417150455151467e-03, 0.000000000000000e+00, -8.720764094332093e+00
75, 2.886535243940000e-01, 2.220446049250313e-16, 1.149054509970240e+05, 1.406676107144818e-01, 3.401864110303242e-03, 0.000000000000000e+00, -8.643354326343017e+00
76, 2.975746430190000e-01, 2.220446049250313e-16, 1.149058859354266e+05, 1.408033283500653e-01, 3.386770777056456e-03, 0.000000000000000e+00, -8.567226543440814e+00
77, 3.067314743950000e-01, 2.220446049250313e-16, 1.149063441210131e+05, 1.409463000078676e-01, 3.371859223450671e-03, 0.000000000000000e+00, -8.492331265038494e+00
78, 3.161355336610000e-01, 2.220446049250313e-16, 1.149068269791162e+05, 1.410969704468811e-01, 3.357116687200729e-03, 0.000000000000000e+00, -8.418593925102222e+00
79, 3.257990755320000e-01, 2.220446049250313e-16, 1.149073340100548e+05, 1.412551837473111e-01, 3.342524103913528e-03, 0.000000000000000e+00, -8.345898687499343e+00
80, 3.357351552200000e-01, 2.220446049250313e-16, 1.149078659478501e+05, 1.414211689521528e-01, 3.328064631141295e-03, 0.000000000000000e+00, -8.274155940654865e+00
81, 3.459576954530000e-01, 2.220446049250313e-16, 1.149084253389500e+05, 1.415957206518666e-01, 3.313728161809729e-03, 0.000000000000000e+00, -8.203319666457949e+00
82, 3.564815603450000e-01, 2.220446049250313e-16, 1.149090138739222e+05, 1.417793663690586e-01, 3.299503790090631e-03, 0.000000000000000e+00, -8.133326253616339e+00
83, 3.673226369200000e-01, 2.220446049250313e-16, 1.149096317188714e+05, 1.419721579348543e-01, 3.285374216116475e-03, 0.000000000000000e+00, -8.064085815952916e+00
84, 3.784979252510000e-01, 2.220446049250313e-16, 1.149102800217808e+05, 1.421744535644748e-01, 3.271308640434862e-03, 0.000000000000000e+00, -7.995476907777617e+00
85, 3.900256382880000e-01, 2.220446049250313e-16, 1.149109615063950e+05, 1.423871031718144e-01, 3.257259074662966e-03, 0.000000000000000e+00, -7.927157032142472e+00
86, 4.019253126140000e-01, 2.220446049250313e-16, 1.149116787272123e+05, 1.426109038592824e-01, 3.243250662318129e-03, 0.000000000000000e+00, -7.859354216075370e+00
87, 4.142179315450000e-01, 2.220446049250313e-16, 1.149124332910166e+05, 1.428463570057469e-01, 3.229294766241798e-03, 0.000000000000000e+00, -7.792100237720264e+00
88, 4.269260622260000e-01, 2.220446049250313e-16, 1.149132275425619e+05, 1.430941942653249e-01, 3.215379500321751e-03, 0.000000000000000e+00, -7.725322353199641e+00
89, 4.400740085990000e-01, 2.220446049250313e-16, 1.149140647134370e+05, 1.433554240189226e-01, 3.201467141329625e-03, 0.000000000000000e+00, -7.658868032624846e+00
90, 4.536879824320000e-01, 2.220446049250313e-16, 1.149149466766837e+05, 1.436306307281923e-01, 3.187465686858851e-03, 0.000000000000000e+00, -7.592248218594867e+00
91, 4.677962949600000e-01, 2.220446049250313e-16, 1.149158738179126e+05, 1.439199347185353e-01, 3.173273006012242e-03, 0.000000000000000e+00, -7.524980617790961e+00
92, 4.824295720830000e-01, 2.220446049250313e-16, 1.149168477405976e+05, 1.442238363360190e-01, 3.158810017341605e-03, 0.000000000000000e+00, -7.456690349927987e+00
93, 4.976209965680000e-01, 2.220446049250313e-16, 1.149178722159629e+05, 1.445435123486449e-01, 3.144063638841692e-03, 0.000000000000000e+00, -7.387379369526916e+00
94, 5.134065813120000e-01, 2.220446049250313e-16, 1.149189520205981e+05, 1.448804532375170e-01, 3.129066582177691e-03, 0.000000000000000e+00, -7.317263209784628e+00
95, 5.298254783930000e-01, 2.220446049250313e-16, 1.149200908125945e+05, 1.452358004688503e-01, 3.113857432982050e-03, 0.000000000000000e+00, -7.246543683551423e+00
96, 5.469203295140000e-01, 2.220446049250313e-16, 1.149212930170784e+05, 1.456109348535439e-01, 3.098466345037425e-03, 0.000000000000000e+00, -7.175383198228986e+00
97, 5.647376644470000e-01, 2.220446049250313e-16, 1.149225639719290e+05, 1.460075220167366e-01, 3.082901220480324e-03, 0.000000000000000e+00, -7.103815324536289e+00
98, 5.833283553420000e-01, 2.220446049250313e-16, 1.149239093188094e+05, 1.464273223759578e-01, 3.067155545488463e-03, 0.000000000000000e+00, -7.031815136987550e+00
99, 6.027481362320000e-01, 2.220446049250313e-16, 1.149253343275751e+05, 1.468719803302798e-01, 3.051214286728296e-03, 0.000000000000000e+00, -6.959303659456923e+00
100, 6.230581989500000e-01, 2.220446049250313e-16, 1.149268446523841e+05, 1.473432601961343e-01, 3.035077237379459e-03, 0.000000000000000e+00, -6.886297715106622e+00
101, 6.443258788700000e-01, 2.220446049250313e-16, 1.149284487698619e+05, 1.478438070091492e-01, 3.018754556860790e-03, 0.000000000000000e+00, -6.812868135419376e+00
102, 6.666254466970000e-01, 2.220446049250313e-16, 1.149301546968279e+05, 1.483761223276163e-01, 3.002246998717115e-03, 0.000000000000000e+00, -6.739022280605528e+00
103, 6.900390259370000e-01, 2.220446049250313e-16, 1.149319695865268e+05, 1.489424382410821e-01, 2.985541108524084e-03, 0.000000000000000e+00, -6.664701226072601e+00
104, 7.146576599530000e-01, 2.220446049250313e-16, 1.149339036636792e+05, 1.495459452586141e-01, 2.968600032556912e-03, 0.000000000000000e+00, -6.589789985583102e+00
105, 7.405825578610000e-01, 2.220446049250313e-16, 1.149359686237721e+05, 1.501902928252876e-01, 2.951335034353907e-03, 0.000000000000000e+00, -6.513620351656442e+00
106, 7.679265552350000e-01, 2.220446049250313e-16, 1.149381759453950e+05, 1.508790627058786e-01, 2.933768218828732e-03, 0.000000000000000e+00, -6.436548929835580e+00
107, 7.968158341210000e-01, 2.220446049250313e-16, 1.149405390039635e+05, 1.516164285483451e-01, 2.915911792388036e-03, 0.000000000000000e+00, -6.358672543651526e+00
108, 8.273919576770000e-01, 2.220446049250313e-16, 1.149430732526409e+05, 1.524072123384329e-01, 2.897741543058400e-03, 0.000000000000000e+00, -6.279906480844839e+00
109, 8.598142887360000e-01, 2.220446049250313e-16, 1.149457953052376e+05, 1.532565982287836e-01, 2.879225693275046e-03, 0.000000000000000e+00, -6.200135960526969e+00
110, 8.942628795040000e-01, 2.220446049250313e-16, 1.149487249314234e+05, 1.541707551225003e-01, 2.860341329147312e-03, 0.000000000000000e+00, -6.119303366582498e+00
111, 9.309419431120000e-01, 2.220446049250313e-16, 1.149518868476550e+05, 1.551573955117593e-01, 2.841058507018322e-03, 0.000000000000000e+00, -6.037309904015380e+00
112, 9.700840484090000e-01, 2.220446049250313e-16, 1.149553109958496e+05, 1.562258624350361e-01, 2.821334872483375e-03, 0.000000000000000e+00, -5.954020952791760e+00
113, 1.011955220140000e+00, 2.220446049250313e-16, 1.149590227474368e+05, 1.573840727615095e-01, 2.801075695717696e-03, 0.000000000000000e+00, -5.869092731788869e+00
114, 1.054913688830000e+00, 2.220446049250313e-16, 1.149628707331801e+05, 1.585847934238118e-01, 2.781022046522534e-03, 0.000000000000000e+00, -5.785592891544343e+00
115, 1.097872157520000e+00, 2.220446049250313e-16, 1.149667616377832e+05, 1.597989064334626e-01, 2.761641194887913e-03, 0.000000000000000e+00, -5.705448575173403e+00
116, 1.140830626210000e+00, 2.220446049250313e-16, 1.149706962973879e+05, 1.610266726991316e-01, 2.742921891263595e-03, 0.000000000000000e+00, -5.628585751914309e+00
117, 1.183789094900000e+00, 2.220446049250313e-16, 1.149746723629935e+05, 1.622673592415985e-01, 2.724840385317789e-03, 0.000000000000000e+00, -5.554845850760088e+00
118, 1.226747563590000e+00, 2.220446049250313e-16, 1.149786887706305e+05, 1.635206340610880e-01, 2.707368615854070e-03, 0.000000000000000e+00, -5.484059834864557e+00
119, 1.269706032280000e+00, 2.220446049250313e-16, 1.149827436200357e+05, 1.647859042019269e-01, 2.690479104900910e-03, 0.000000000000000e+00, -5.416071364935566e+00
120, 1.312664500970000e+00, 2.220446049250313e-16, 1.149868339710885e+05, 1.660622522324810e-01, 2.674135702500035e-03, 0.000000000000000e+00, -5.350688276213638e+00
121, 1.355622969660000e+00, 2.220446049250313e-16, 1.149909583770391e+05, 1.673492267107928e-01, 2.658299505544399e-03, 0.000000000000000e+00, -5.287712313925472e+00
122, 1.398581438350000e+00, 2.220446049250313e-16, 1.149951162449196e+05, 1.686466426078808e-01, 2.642939431273448e-03, 0.000000000000000e+00, -5.226986001877107e+00
123, 1.441539907040000e+00, 2.220446049250313e-16, 1.149993051706793e+05, 1.699537497667969e-01, 2.628028882337556e-03, 0.000000000000000e+00, -5.168374512356603e+00
124, 1.484498375720000e+00, 2.220446049250313e-16, 1.150035221109932e+05, 1.712695985521732e-01, 2.613537710343232e-03, 0.000000000000000e+00, -5.111729074470633e+00
125, 1.527456844410000e+00, 2.220446049250313e-16, 1.150077652386938e+05, 1.725936188170079e-01, 2.599435378770287e-03, 0.000000000000000e+00, -5.056902331761502e+00
126, 1.570415313100000e+00, 2.220446049250313e-16, 1.150120335908984e+05, 1.739255101045107e-01, 2.585698406118104e-03, 0.000000000000000e+00, -5.003779726870635e+00
127, 1.613373781790000e+00, 2.220446049250313e-16, 1.150163250750374e+05, 1.752646194519332e-01, 2.572310068200856e-03, 0.000000000000000e+00, -4.952276373096629e+00
128, 1.656332250480000e+00, 2.220446049250313e-16, 1.150206364974739e+05, 1.766099503207658e-01, 2.559254032665264e-03, 0.000000000000000e+00, -4.902307821483990e+00
129, 1.699290719170000e+00, 2.220446049250313e-16, 1.150249650855431e+05, 1.779606375321733e-01, 2.546513616974648e-03, 0.000000000000000e+00, -4.853788307976783e+00
130, 1.742249187860000e+00, 2.220446049250313e-16, 1.150293117881355e+05, 1.793169771767903e-01, 2.534076074778591e-03, 0.000000000000000e+00, -4.806650999744398e+00
131, 1.785207656550000e+00, 2.220446049250313e-16, 1.150336752543071e+05, 1.806785477077066e-01, 2.521921837712016e-03, 0.000000000000000e+00, -4.760814108538674e+00
132, 1.828166125240000e+00, 2.220446049250313e-16, 1.150380646461628e+05, 1.820482080566778e-01, 2.510008738203569e-03, 0.000000000000000e+00, -4.716119648226062e+00
133, 1.871124593930000e+00, 2.220446049250313e-16, 1.150424148569872e+05, 1.834056424056041e-01, 2.498197373225799e-03, 0.000000000000000e+00, -4.672061283501389e+00
134, 1.914083062620000e+00, 2.220446049250313e-16, 1.150469143501824e+05, 1.848096586389420e-01, 2.486632784835954e-03, 0.000000000000000e+00, -4.628976940548979e+00
135, 1.957041531310000e+00, 2.220446049250313e-16, 1.150503244367367e+05, 1.858737377855780e-01, 2.474134324545066e-03, 0.000000000000000e+00, -4.583700510252950e+00
136, 2.000000000000000e+00, 2.220446049250313e-16, 1.150645339994014e+05, 1.903076719609272e-01, 2.467133383360768e-03, 0.000000000000000e+00, -4.555408682933048e+00
