"Global_Index", "x_coord", "y_coord", "Pressure", "Pressure_Coefficient", "Skin_Friction_Coefficient_X", "Skin_Friction_Coefficient_Y", "Heat_Flux"
24, 0.000000000000000e+00, 2.220446049250313e-16, 3.557452488627261e+04, 1.287815238824508e-02, 5.428954967271206e-03, 0.000000000000000e+00, -3.492446491025084e+03
25, 4.011887597850000e-03, 2.220446049250313e-16, 3.495918475489804e+04, 6.477820202668098e-03, 2.296516555653942e-03, 0.000000000000000e+00, -2.406260810508028e+03
26, 8.056205200680001e-03, 2.220446049250313e-16, 3.483813683570387e+04, 5.218765488513726e-03, 1.592541813034070e-03, 0.000000000000000e+00, -2.963002172757901e+03
27, 1.213422760060000e-02, 2.220446049250313e-16, 3.475019571614608e+04, 4.304064253793200e-03, 1.292009839149241e-03, 0.000000000000000e+00, -2.773873925698266e+03
28, 1.624726554020000e-02, 2.220446049250313e-16, 3.466568278396609e+04, 3.425020595904725e-03, 1.128992085142964e-03, 0.000000000000000e+00, -2.572613272715034e+03
29, 2.039666755470000e-02, 2.220446049250313e-16, 3.456075660382512e+04, 2.333652791946025e-03, 1.049852839333696e-03, 0.000000000000000e+00, -2.422882475559762e+03
30, 2.458382190520000e-02, 2.220446049250313e-16, 3.445491585648462e+04, 1.232772307788990e-03, 1.079770775741055e-03, 0.000000000000000e+00, -2.287126880167481e+03
31, 2.881015861120000e-02, 2.220446049250313e-16, 3.440715296046954e+04, 7.359764951075986e-04, 1.300264902284285e-03, 0.000000000000000e+00, -2.230837843147175e+03
32, 3.307715158840000e-02, 2.220446049250313e-16, 3.449384880780879e+04, 1.637725290268678e-03, 1.785589649994096e-03, 0.000000000000000e+00, -2.690524714737156e+03
33, 3.738632089750000e-02, 2.220446049250313e-16, 3.462458406057514e+04, 2.997540786457543e-03, 2.321067113121056e-03, 0.000000000000000e+00, -3.591147071303166e+03
34, 4.173923511390000e-02, 2.220446049250313e-16, 3.471108385608919e+04, 3.897250389401266e-03, 2.638674958983215e-03, 0.000000000000000e+00, -4.075261829712723e+03
35, 4.613751382460000e-02, 2.220446049250313e-16, 3.475730657032180e+04, 4.378026322131147e-03, 2.750569054555814e-03, 0.000000000000000e+00, -4.099975260940198e+03
36, 5.058283026210000e-02, 2.220446049250313e-16, 3.477587621712183e+04, 4.571174634794489e-03, 2.753424861946229e-03, 0.000000000000000e+00, -3.931411606182833e+03
37, 5.507691408390000e-02, 2.220446049250313e-16, 3.477988928922311e+04, 4.612915768231470e-03, 2.716420308105968e-03, 0.000000000000000e+00, -3.735915640583267e+03
38, 5.962155430870000e-02, 2.220446049250313e-16, 3.477769594489958e+04, 4.590102154179434e-03, 2.671399406039851e-03, 0.000000000000000e+00, -3.558820565629102e+03
39, 6.421860241959999e-02, 2.220446049250313e-16, 3.477333942181512e+04, 4.544788686890374e-03, 2.628870496704174e-03, 0.000000000000000e+00, -3.403883572541483e+03
40, 6.886997564640000e-02, 2.220446049250313e-16, 3.476838306451054e+04, 4.493236168921375e-03, 2.590848083120041e-03, 0.000000000000000e+00, -3.266701124468699e+03
41, 7.357766043930000e-02, 2.220446049250313e-16, 3.476342784410466e+04, 4.441695476167396e-03, 2.556984335573798e-03, 0.000000000000000e+00, -3.143929877457089e+03
42, 7.834371614890000e-02, 2.220446049250313e-16, 3.475870205898895e+04, 4.392541206786906e-03, 2.526623445715175e-03, 0.000000000000000e+00, -3.033342011359342e+03
43, 8.317027892560000e-02, 2.220446049250313e-16, 3.475421722425552e+04, 4.345893132611624e-03, 2.499054893198124e-03, 0.000000000000000e+00, -2.932886600796082e+03
44, 8.805956585650000e-02, 2.220446049250313e-16, 3.474996619575210e+04, 4.301676945230128e-03, 2.473763748354656e-03, 0.000000000000000e+00, -2.841155916621677e+03
45, 9.301387935570000e-02, 2.220446049250313e-16, 3.474592165230114e+04, 4.259608469105681e-03, 2.450357829031416e-03, 0.000000000000000e+00, -2.756952158876967e+03
46, 9.803561182770000e-02, 2.220446049250313e-16, 3.474207691958018e+04, 4.219618282663725e-03, 2.428556024580418e-03, 0.000000000000000e+00, -2.679361882626173e+03
47, 1.031272506240000e-01, 2.220446049250313e-16, 3.473840819481212e+04, 4.181458806276923e-03, 2.408125942215222e-03, 0.000000000000000e+00, -2.607552746864898e+03
48, 1.082913833170000e-01, 2.220446049250313e-16, 3.473491213583751e+04, 4.145095277169950e-03, 2.388892477290529e-03, 0.000000000000000e+00, -2.540871967479502e+03
49, 1.135307033110000e-01, 2.220446049250313e-16, 3.473156644378877e+04, 4.110295758317302e-03, 2.370688079398008e-03, 0.000000000000000e+00, -2.478665962840427e+03
50, 1.188480158220000e-01, 2.220446049250313e-16, 3.472834734273048e+04, 4.076812949279682e-03, 2.353372258714637e-03, 0.000000000000000e+00, -2.420358706929343e+03
51, 1.242462442510000e-01, 2.220446049250313e-16, 3.472524796223425e+04, 4.044575388727536e-03, 2.336872149930273e-03, 0.000000000000000e+00, -2.365688816275823e+03
52, 1.297284369870000e-01, 2.220446049250313e-16, 3.472227564552121e+04, 4.013659455645579e-03, 2.321116448889868e-03, 0.000000000000000e+00, -2.314278456483818e+03
53, 1.352977746630000e-01, 2.220446049250313e-16, 3.471941122271134e+04, 3.983865758520513e-03, 2.306040930935271e-03, 0.000000000000000e+00, -2.265812666456467e+03
54, 1.409575779210000e-01, 2.220446049250313e-16, 3.471666128737583e+04, 3.955262879009239e-03, 2.291590815409986e-03, 0.000000000000000e+00, -2.220010177816438e+03
55, 1.467113157020000e-01, 2.220446049250313e-16, 3.471401718692928e+04, 3.927760819047511e-03, 2.277706479553843e-03, 0.000000000000000e+00, -2.176580494084202e+03
56, 1.525626141330000e-01, 2.220446049250313e-16, 3.471145252925882e+04, 3.901085066571289e-03, 2.264338584316944e-03, 0.000000000000000e+00, -2.135320305633984e+03
57, 1.585152660350000e-01, 2.220446049250313e-16, 3.470898640947128e+04, 3.875434235356260e-03, 2.251450132227897e-03, 0.000000000000000e+00, -2.096043196576764e+03
58, 1.645732411200000e-01, 2.220446049250313e-16, 3.470660989813908e+04, 3.850715447821805e-03, 2.238996903650433e-03, 0.000000000000000e+00, -2.058547512900649e+03
59, 1.707406969350000e-01, 2.220446049250313e-16, 3.470429018853857e+04, 3.826587471666370e-03, 2.226941308886771e-03, 0.000000000000000e+00, -2.022686419404162e+03
60, 1.770219906140000e-01, 2.220446049250313e-16, 3.470204472998554e+04, 3.803231802312788e-03, 2.215260261015298e-03, 0.000000000000000e+00, -1.988337886045209e+03
61, 1.834216915030000e-01, 2.220446049250313e-16, 3.469987370235969e+04, 3.780650310742531e-03, 2.203923230037540e-03, 0.000000000000000e+00, -1.955366624486531e+03
62, 1.899445947530000e-01, 2.220446049250313e-16, 3.469775325750007e+04, 3.758594945277518e-03, 2.192899562666752e-03, 0.000000000000000e+00, -1.923675990796246e+03
63, 1.965957359540000e-01, 2.220446049250313e-16, 3.469572862094621e+04, 3.737536109945530e-03, 2.182173758897878e-03, 0.000000000000000e+00, -1.893184281429565e+03
64, 2.033804069020000e-01, 2.220446049250313e-16, 3.469384881687842e+04, 3.717983719545113e-03, 2.171724205928375e-03, 0.000000000000000e+00, -1.863740715475969e+03
65, 2.103041726230000e-01, 2.220446049250313e-16, 3.469206712845963e+04, 3.699451858627889e-03, 2.161502819376564e-03, 0.000000000000000e+00, -1.835102452447411e+03
66, 2.173728897500000e-01, 2.220446049250313e-16, 3.469033750712312e+04, 3.681461562620042e-03, 2.151458822479847e-03, 0.000000000000000e+00, -1.806998411033970e+03
67, 2.245927263960000e-01, 2.220446049250313e-16, 3.468866874938297e+04, 3.664104326630363e-03, 2.141554217829490e-03, 0.000000000000000e+00, -1.779191200588583e+03
68, 2.319701836540000e-01, 2.220446049250313e-16, 3.468704633326727e+04, 3.647229103393222e-03, 2.131750427064501e-03, 0.000000000000000e+00, -1.751492186867677e+03
69, 2.395121189030000e-01, 2.220446049250313e-16, 3.468547162782247e+04, 3.630850132760112e-03, 2.122023100431400e-03, 0.000000000000000e+00, -1.723784491483804e+03
70, 2.472257710730000e-01, 2.220446049250313e-16, 3.468395256059032e+04, 3.615049871404983e-03, 2.112358035049497e-03, 0.000000000000000e+00, -1.695990000499052e+03
71, 2.551187880890000e-01, 2.220446049250313e-16, 3.468243899613043e+04, 3.599306845989180e-03, 2.102730498329782e-03, 0.000000000000000e+00, -1.668040218439441e+03
72, 2.631992566980000e-01, 2.220446049250313e-16, 3.468094395950821e+04, 3.583756534017124e-03, 2.093128811532112e-03, 0.000000000000000e+00, -1.639901585244634e+03
73, 2.714757349350000e-01, 2.220446049250313e-16, 3.467947890576402e+04, 3.568518082704667e-03, 2.083550145985502e-03, 0.000000000000000e+00, -1.611598930987461e+03
74, 2.799572875080000e-01, 2.220446049250313e-16, 3.467798925603752e+04, 3.553023801406275e-03, 2.073994806546881e-03, 0.000000000000000e+00, -1.583197021686856e+03
75, 2.886535243940000e-01, 2.220446049250313e-16, 3.467648777812678e+04, 3.537406491713501e-03, 2.064465594827214e-03, 0.000000000000000e+00, -1.554768958791253e+03
76, 2.975746430190000e-01, 2.220446049250313e-16, 3.467500950973884e+04, 3.522030591037061e-03, 2.054971574374178e-03, 0.000000000000000e+00, -1.526393635266825e+03
77, 3.067314743950000e-01, 2.220446049250313e-16, 3.467352599980311e+04, 3.506600171493216e-03, 2.045515888797473e-03, 0.000000000000000e+00, -1.498139789212727e+03
78, 3.161355336610000e-01, 2.220446049250313e-16, 3.467202409625753e+04, 3.490978434648398e-03, 2.036097792413298e-03, 0.000000000000000e+00, -1.470033653628527e+03
79, 3.257990755320000e-01, 2.220446049250313e-16, 3.467055207492879e+04, 3.475667511456751e-03, 2.026698966838232e-03, 0.000000000000000e+00, -1.442029242381366e+03
80, 3.357351552200000e-01, 2.220446049250313e-16, 3.466911050825368e+04, 3.460673356000418e-03, 2.017285776124067e-03, 0.000000000000000e+00, -1.414046215471181e+03
81, 3.459576954530000e-01, 2.220446049250313e-16, 3.466761556364503e+04, 3.445124001088284e-03, 2.007850726285692e-03, 0.000000000000000e+00, -1.386124096211278e+03
82, 3.564815603450000e-01, 2.220446049250313e-16, 3.466607348909351e+04, 3.429084433893766e-03, 1.998406266056156e-03, 0.000000000000000e+00, -1.358376174542801e+03
83, 3.673226369200000e-01, 2.220446049250313e-16, 3.466453983246865e+04, 3.413132424009768e-03, 1.988971433315445e-03, 0.000000000000000e+00, -1.330933227476287e+03
84, 3.784979252510000e-01, 2.220446049250313e-16, 3.466301698630949e+04, 3.397292856932705e-03, 1.979567937179216e-03, 0.000000000000000e+00, -1.303908303535467e+03
85, 3.900256382880000e-01, 2.220446049250313e-16, 3.466144680785952e+04, 3.380960972893170e-03, 1.970201515721123e-03, 0.000000000000000e+00, -1.277342549637505e+03
86, 4.019253126140000e-01, 2.220446049250313e-16, 3.465984458763481e+04, 3.364295813008840e-03, 1.960874038767037e-03, 0.000000000000000e+00, -1.251280841221438e+03
87, 4.142179315450000e-01, 2.220446049250313e-16, 3.465825938598096e+04, 3.347807668244017e-03, 1.951597056428485e-03, 0.000000000000000e+00, -1.225785553421804e+03
88, 4.269260622260000e-01, 2.220446049250313e-16, 3.465668038249948e+04, 3.331383992477716e-03, 1.942379287682709e-03, 0.000000000000000e+00, -1.200898224027491e+03
89, 4.400740085990000e-01, 2.220446049250313e-16, 3.465506339713350e+04, 3.314565256052419e-03, 1.933229358159697e-03, 0.000000000000000e+00, -1.176637062920454e+03
90, 4.536879824320000e-01, 2.220446049250313e-16, 3.465343549545523e+04, 3.297632975878974e-03, 1.924138965539616e-03, 0.000000000000000e+00, -1.152980393881084e+03
91, 4.677962949600000e-01, 2.220446049250313e-16, 3.465183834556675e+04, 3.281020554040720e-03, 1.915104583604950e-03, 0.000000000000000e+00, -1.129903119999430e+03
92, 4.824295720830000e-01, 2.220446049250313e-16, 3.465024825508866e+04, 3.264481559188975e-03, 1.906111873938230e-03, 0.000000000000000e+00, -1.107380857599449e+03
93, 4.976209965680000e-01, 2.220446049250313e-16, 3.464861787107086e+04, 3.247523459477980e-03, 1.897140102435613e-03, 0.000000000000000e+00, -1.085361619226496e+03
94, 5.134065813120000e-01, 2.220446049250313e-16, 3.464697647808991e+04, 3.230450852330313e-03, 1.888177537379411e-03, 0.000000000000000e+00, -1.063818049399755e+03
95, 5.298254783930000e-01, 2.220446049250313e-16, 3.464536661083115e+04, 3.213706153414457e-03, 1.879241192985609e-03, 0.000000000000000e+00, -1.042756096343100e+03
96, 5.469203295140000e-01, 2.220446049250313e-16, 3.464376006907673e+04, 3.196996044039112e-03, 1.870327102194549e-03, 0.000000000000000e+00, -1.022141087866641e+03
97, 5.647376644470000e-01, 2.220446049250313e-16, 3.464212082097336e+04, 3.179945746388767e-03, 1.861432372337288e-03, 0.000000000000000e+00, -1.001938445752473e+03
98, 5.833283553420000e-01, 2.220446049250313e-16, 3.464048334304638e+04, 3.162913860859408e-03, 1.852541651729625e-03, 0.000000000000000e+00, -9.821056817303867e+02
99, 6.027481362320000e-01, 2.220446049250313e-16, 3.463887831364428e+04, 3.146219481901647e-03, 1.843650473926681e-03, 0.000000000000000e+00, -9.626131387505964e+02
100, 6.230581989500000e-01, 2.220446049250313e-16, 3.463726213963651e+04, 3.129409184649800e-03, 1.834747480777493e-03, 0.000000000000000e+00, -9.434286172256707e+02
101, 6.443258788700000e-01, 2.220446049250313e-16, 3.463561170165001e+04, 3.112242497761204e-03, 1.825827393428796e-03, 0.000000000000000e+00, -9.245218226669850e+02
102, 6.666254466970000e-01, 2.220446049250313e-16, 3.463397150827677e+04, 3.095182368083130e-03, 1.816874493127122e-03, 0.000000000000000e+00, -9.058534231097436e+02
103, 6.900390259370000e-01, 2.220446049250313e-16, 3.463236045179074e+04, 3.078425299667603e-03, 1.807882170392732e-03, 0.000000000000000e+00, -8.873982453522857e+02
104, 7.146576599530000e-01, 2.220446049250313e-16, 3.463071712357345e+04, 3.061332563562251e-03, 1.798842705744799e-03, 0.000000000000000e+00, -8.691322715713073e+02
105, 7.405825578610000e-01, 2.220446049250313e-16, 3.462904605812980e+04, 3.043951324475366e-03, 1.789744099337037e-03, 0.000000000000000e+00, -8.510245091829012e+02
106, 7.679265552350000e-01, 2.220446049250313e-16, 3.462738897527054e+04, 3.026715522326983e-03, 1.780573269811940e-03, 0.000000000000000e+00, -8.330464864764531e+02
107, 7.968158341210000e-01, 2.220446049250313e-16, 3.462572099818787e+04, 3.009366406183446e-03, 1.771321886919259e-03, 0.000000000000000e+00, -8.151696283712005e+02
108, 8.273919576770000e-01, 2.220446049250313e-16, 3.462398040091684e+04, 2.991261946279315e-03, 1.761989244811160e-03, 0.000000000000000e+00, -7.973529979733498e+02
109, 8.598142887360000e-01, 2.220446049250313e-16, 3.462224505253124e+04, 2.973212081563403e-03, 1.752535452977255e-03, 0.000000000000000e+00, -7.795328593606305e+02
110, 8.942628795040000e-01, 2.220446049250313e-16, 3.462073465861029e+04, 2.957502033847967e-03, 1.742936521939681e-03, 0.000000000000000e+00, -7.617092680298715e+02
111, 9.309419431120000e-01, 2.220446049250313e-16, 3.461939338444974e+04, 2.943551050088346e-03, 1.733131926380808e-03, 0.000000000000000e+00, -7.439330506527685e+02
112, 9.700840484090000e-01, 2.220446049250313e-16, 3.461747225794908e+04, 2.923568853010907e-03, 1.723202492238093e-03, 0.000000000000000e+00, -7.263737436274536e+02
113, 1.011955220140000e+00, 2.220446049250313e-16, 3.461514186294637e+04, 2.899329734870438e-03, 1.713262820856376e-03, 0.000000000000000e+00, -7.090505885865608e+02
114, 1.054913688830000e+00, 2.220446049250313e-16, 3.461331919879091e+04, 2.880371673364498e-03, 1.703535236096349e-03, 0.000000000000000e+00, -6.920669938704169e+02
115, 1.097872157520000e+00, 2.220446049250313e-16, 3.461190302998284e+04, 2.865641688531133e-03, 1.694151320327850e-03, 0.000000000000000e+00, -6.755902611873739e+02
116, 1.140830626210000e+00, 2.220446049250313e-16, 3.461050953094635e+04, 2.851147498604215e-03, 1.685135038705067e-03, 0.000000000000000e+00, -6.597973251870421e+02
117, 1.183789094900000e+00, 2.220446049250313e-16, 3.460907841629700e+04, 2.836262057716394e-03, 1.676502318382407e-03, 0.000000000000000e+00, -6.447491297205513e+02
118, 1.226747563590000e+00, 2.220446049250313e-16, 3.460764634914057e+04, 2.821366709524631e-03, 1.668226032136455e-03, 0.000000000000000e+00, -6.304131291423897e+02
119, 1.269706032280000e+00, 2.220446049250313e-16, 3.460627354543185e+04, 2.807087777738116e-03, 1.660285926402261e-03, 0.000000000000000e+00, -6.167470624163041e+02
120, 1.312664500970000e+00, 2.220446049250313e-16, 3.460497882918852e+04, 2.793621056455226e-03, 1.652663804145804e-03, 0.000000000000000e+00, -6.037183905061734e+02
121, 1.355622969660000e+00, 2.220446049250313e-16, 3.460370363479028e+04, 2.780357387577219e-03, 1.645335792188150e-03, 0.000000000000000e+00, -5.912938564477138e+02
122, 1.398581438350000e+00, 2.220446049250313e-16, 3.460244619734158e+04, 2.767278413910583e-03, 1.638283272586362e-03, 0.000000000000000e+00, -5.794338586987751e+02
123, 1.441539907040000e+00, 2.220446049250313e-16, 3.460124845892983e+04, 2.754820387339986e-03, 1.631490987271533e-03, 0.000000000000000e+00, -5.680941846222310e+02
124, 1.484498375720000e+00, 2.220446049250313e-16, 3.460013082528790e+04, 2.743195553844733e-03, 1.624943953367039e-03, 0.000000000000000e+00, -5.572236874949461e+02
125, 1.527456844410000e+00, 2.220446049250313e-16, 3.459905717646088e+04, 2.732028219238776e-03, 1.618621904410662e-03, 0.000000000000000e+00, -5.467702732377365e+02
126, 1.570415313100000e+00, 2.220446049250313e-16, 3.459802399533004e+04, 2.721281800944084e-03, 1.612507457480813e-03, 0.000000000000000e+00, -5.367635547827987e+02
127, 1.613373781790000e+00, 2.220446049250313e-16, 3.459703515390381e+04, 2.710996572849823e-03, 1.606587331522397e-03, 0.000000000000000e+00, -5.274241337078121e+02
128, 1.656332250480000e+00, 2.220446049250313e-16, 3.459602296339428e+04, 2.700468484129842e-03, 1.600859442340688e-03, 0.000000000000000e+00, -5.188497290121044e+02
129, 1.699290719170000e+00, 2.220446049250313e-16, 3.459481009627142e+04, 2.687853099422277e-03, 1.595361836636795e-03, 0.000000000000000e+00, -5.098234658198404e+02
130, 1.742249187860000e+00, 2.220446049250313e-16, 3.459336516795126e+04, 2.672823978515318e-03, 1.590026157863363e-03, 0.000000000000000e+00, -4.973609303008132e+02
131, 1.785207656550000e+00, 2.220446049250313e-16, 3.459281616774324e+04, 2.667113667222168e-03, 1.584488144028936e-03, 0.000000000000000e+00, -4.823367575729541e+02
132, 1.828166125240000e+00, 2.220446049250313e-16, 3.459635095966324e+04, 2.703880068991465e-03, 1.577885317884982e-03, 0.000000000000000e+00, -4.808953253757783e+02
133, 1.871124593930000e+00, 2.220446049250313e-16, 3.460326734893357e+04, 2.775819451128020e-03, 1.567069837805374e-03, 0.000000000000000e+00, -5.127832031009983e+02
134, 1.914083062620000e+00, 2.220446049250313e-16, 3.459282415992281e+04, 2.667196796212987e-03, 1.540176329767290e-03, 0.000000000000000e+00, -5.406634342131786e+02
135, 1.957041531310000e+00, 2.220446049250313e-16, 3.455175099485369e+04, 2.239982826325889e-03, 1.440250921711931e-03, 0.000000000000000e+00, -3.760212325249473e+02
136, 2.000000000000000e+00, 2.220446049250313e-16, 3.455624670170301e+04, 2.286743984549669e-03, 1.018142389994582e-03, 0.000000000000000e+00, 1.855276079682972e+02
