"Global_Index", "x_coord", "y_coord", "Pressure", "Pressure_Coefficient", "Skin_Friction_Coefficient_X", "Skin_Friction_Coefficient_Y"
24, 0.000000000000000e+00, 2.220446049250313e-16, 1.150865363094403e+05, 1.971732452878941e-01, 1.215408305744281e-02, 0.000000000000000e+00
25, 4.011887597850000e-03, 2.220446049250313e-16, 1.150568631433270e+05, 1.879140676181827e-01, 3.273627784128477e-03, 0.000000000000000e+00
26, 8.056205200680001e-03, 2.220446049250313e-16, 1.150646648639913e+05, 1.903485067840276e-01, 2.513242756624481e-03, 0.000000000000000e+00
27, 1.213422760060000e-02, 2.220446049250313e-16, 1.150635133603037e+05, 1.899891930124439e-01, 2.209637235797932e-03, 0.000000000000000e+00
28, 1.624726554020000e-02, 2.220446049250313e-16, 1.150637293497481e+05, 1.900565900887412e-01, 1.988758420934985e-03, 0.000000000000000e+00
29, 2.039666755470000e-02, 2.220446049250313e-16, 1.150628250841012e+05, 1.897744241663889e-01, 1.808309943420501e-03, 0.000000000000000e+00
30, 2.458382190520000e-02, 2.220446049250313e-16, 1.150610224539190e+05, 1.892119336971988e-01, 1.655391971855656e-03, 0.000000000000000e+00
31, 2.881015861120000e-02, 2.220446049250313e-16, 1.150592484402028e+05, 1.886583726742614e-01, 1.542950304249084e-03, 0.000000000000000e+00
32, 3.307715158840000e-02, 2.220446049250313e-16, 1.150594796107134e+05, 1.887305068314942e-01, 1.518783574966691e-03, 0.000000000000000e+00
33, 3.738632089750000e-02, 2.220446049250313e-16, 1.150634598975986e+05, 1.899725105767525e-01, 1.675669551798823e-03, 0.000000000000000e+00
34, 4.173923511390000e-02, 2.220446049250313e-16, 1.150706954863488e+05, 1.922302946476296e-01, 2.130636454506833e-03, 0.000000000000000e+00
35, 4.613751382460000e-02, 2.220446049250313e-16, 1.150782783263807e+05, 1.945964345744484e-01, 2.916613442068190e-03, 0.000000000000000e+00
36, 5.058283026210000e-02, 2.220446049250313e-16, 1.150817310097241e+05, 1.956738055699213e-01, 3.711210039503526e-03, 0.000000000000000e+00
37, 5.507691408390000e-02, 2.220446049250313e-16, 1.150810727930603e+05, 1.954684164647534e-01, 4.192311735169181e-03, 0.000000000000000e+00
38, 5.962155430870000e-02, 2.220446049250313e-16, 1.150787895079714e+05, 1.947559430391658e-01, 4.367836703597775e-03, 0.000000000000000e+00
39, 6.421860241959999e-02, 2.220446049250313e-16, 1.150764245187238e+05, 1.940179747500126e-01, 4.380661722347642e-03, 0.000000000000000e+00
40, 6.886997564640000e-02, 2.220446049250313e-16, 1.150744400417527e+05, 1.933987410360712e-01, 4.332736429127933e-03, 0.000000000000000e+00
41, 7.357766043930000e-02, 2.220446049250313e-16, 1.150728701882911e+05, 1.929088859238444e-01, 4.271162962863532e-03, 0.000000000000000e+00
42, 7.834371614890000e-02, 2.220446049250313e-16, 1.150716376045628e+05, 1.925242720377077e-01, 4.212038071850145e-03, 0.000000000000000e+00
43, 8.317027892560000e-02, 2.220446049250313e-16, 1.150706534135498e+05, 1.922171663039973e-01, 4.158728403245669e-03, 0.000000000000000e+00
44, 8.805956585650000e-02, 2.220446049250313e-16, 1.150698444184105e+05, 1.919647284717730e-01, 4.110647970776441e-03, 0.000000000000000e+00
45, 9.301387935570000e-02, 2.220446049250313e-16, 1.150691591619095e+05, 1.917509018896094e-01, 4.066758051032761e-03, 0.000000000000000e+00
46, 9.803561182770000e-02, 2.220446049250313e-16, 1.150685681452319e+05, 1.915664817841591e-01, 4.026311777719688e-03, 0.000000000000000e+00
47, 1.031272506240000e-01, 2.220446049250313e-16, 1.150680475155214e+05, 1.914040251399689e-01, 3.988647293685423e-03, 0.000000000000000e+00
48, 1.082913833170000e-01, 2.220446049250313e-16, 1.150675828260486e+05, 1.912590240176241e-01, 3.953405002140624e-03, 0.000000000000000e+00
49, 1.135307033110000e-01, 2.220446049250313e-16, 1.150671620883937e+05, 1.911277375656091e-01, 3.920201660846936e-03, 0.000000000000000e+00
50, 1.188480158220000e-01, 2.220446049250313e-16, 1.150667768555093e+05, 1.910075299778204e-01, 3.888818378537376e-03, 0.000000000000000e+00
51, 1.242462442510000e-01, 2.220446049250313e-16, 1.150664217834552e+05, 1.908967337377968e-01, 3.859040487531573e-03, 0.000000000000000e+00
52, 1.297284369870000e-01, 2.220446049250313e-16, 1.150660907538292e+05, 1.907934396670153e-01, 3.830704756465345e-03, 0.000000000000000e+00
53, 1.352977746630000e-01, 2.220446049250313e-16, 1.150657823012450e+05, 1.906971905081379e-01, 3.803689798752093e-03, 0.000000000000000e+00
54, 1.409575779210000e-01, 2.220446049250313e-16, 1.150654918448014e+05, 1.906065568424583e-01, 3.777831218033750e-03, 0.000000000000000e+00
55, 1.467113157020000e-01, 2.220446049250313e-16, 1.150652175441846e+05, 1.905209644208101e-01, 3.752999366915541e-03, 0.000000000000000e+00
56, 1.525626141330000e-01, 2.220446049250313e-16, 1.150649582732942e+05, 1.904400618561920e-01, 3.729120978461916e-03, 0.000000000000000e+00
57, 1.585152660350000e-01, 2.220446049250313e-16, 1.150647104864349e+05, 1.903627427542861e-01, 3.706137742176613e-03, 0.000000000000000e+00
58, 1.645732411200000e-01, 2.220446049250313e-16, 1.150644744754897e+05, 1.902890981939031e-01, 3.684006737967396e-03, 0.000000000000000e+00
59, 1.707406969350000e-01, 2.220446049250313e-16, 1.150642493193129e+05, 1.902188407419062e-01, 3.662651086155236e-03, 0.000000000000000e+00
60, 1.770219906140000e-01, 2.220446049250313e-16, 1.150640316950535e+05, 1.901509335399673e-01, 3.641968367872380e-03, 0.000000000000000e+00
61, 1.834216915030000e-01, 2.220446049250313e-16, 1.150638219734321e+05, 1.900854922673355e-01, 3.621881028607744e-03, 0.000000000000000e+00
62, 1.899445947530000e-01, 2.220446049250313e-16, 1.150636207305054e+05, 1.900226966759734e-01, 3.602355211274221e-03, 0.000000000000000e+00
63, 1.965957359540000e-01, 2.220446049250313e-16, 1.150634254654119e+05, 1.899617664002597e-01, 3.583365306763407e-03, 0.000000000000000e+00
64, 2.033804069020000e-01, 2.220446049250313e-16, 1.150632353527447e+05, 1.899024438811584e-01, 3.564887564996135e-03, 0.000000000000000e+00
65, 2.103041726230000e-01, 2.220446049250313e-16, 1.150630520549916e+05, 1.898452478793677e-01, 3.546899307117133e-03, 0.000000000000000e+00
66, 2.173728897500000e-01, 2.220446049250313e-16, 1.150628740383713e+05, 1.897896997956578e-01, 3.529354266715377e-03, 0.000000000000000e+00
67, 2.245927263960000e-01, 2.220446049250313e-16, 1.150626989591782e+05, 1.897350683030460e-01, 3.512214499491953e-03, 0.000000000000000e+00
68, 2.319701836540000e-01, 2.220446049250313e-16, 1.150625282800417e+05, 1.896818097985868e-01, 3.495460891972935e-03, 0.000000000000000e+00
69, 2.395121189030000e-01, 2.220446049250313e-16, 1.150623627170208e+05, 1.896301477204821e-01, 3.479069650102075e-03, 0.000000000000000e+00
70, 2.472257710730000e-01, 2.220446049250313e-16, 1.150621997262672e+05, 1.895792882894106e-01, 3.463007184138488e-03, 0.000000000000000e+00
71, 2.551187880890000e-01, 2.220446049250313e-16, 1.150620387237031e+05, 1.895290492505101e-01, 3.447251015840605e-03, 0.000000000000000e+00
72, 2.631992566980000e-01, 2.220446049250313e-16, 1.150618815952904e+05, 1.894800190969888e-01, 3.431787388021754e-03, 0.000000000000000e+00
73, 2.714757349350000e-01, 2.220446049250313e-16, 1.150617278832975e+05, 1.894320549988460e-01, 3.416583043543851e-03, 0.000000000000000e+00
74, 2.799572875080000e-01, 2.220446049250313e-16, 1.150615755031847e+05, 1.893845064988844e-01, 3.401582880378203e-03, 0.000000000000000e+00
75, 2.886535243940000e-01, 2.220446049250313e-16, 1.150614245689204e+05, 1.893374091596802e-01, 3.386784014315602e-03, 0.000000000000000e+00
76, 2.975746430190000e-01, 2.220446049250313e-16, 1.150612768775934e+05, 1.892913237425857e-01, 3.372196907764269e-03, 0.000000000000000e+00
77, 3.067314743950000e-01, 2.220446049250313e-16, 1.150611317321902e+05, 1.892460327523704e-01, 3.357810955286674e-03, 0.000000000000000e+00
78, 3.161355336610000e-01, 2.220446049250313e-16, 1.150609874197027e+05, 1.892010016641107e-01, 3.343607713219479e-03, 0.000000000000000e+00
79, 3.257990755320000e-01, 2.220446049250313e-16, 1.150608441506687e+05, 1.891562961737974e-01, 3.329572531596454e-03, 0.000000000000000e+00
80, 3.357351552200000e-01, 2.220446049250313e-16, 1.150607033624665e+05, 1.891123647991378e-01, 3.315697467188748e-03, 0.000000000000000e+00
81, 3.459576954530000e-01, 2.220446049250313e-16, 1.150605645446689e+05, 1.890690482670667e-01, 3.301968459425676e-03, 0.000000000000000e+00
82, 3.564815603450000e-01, 2.220446049250313e-16, 1.150604262521651e+05, 1.890258956470117e-01, 3.288369987939919e-03, 0.000000000000000e+00
83, 3.673226369200000e-01, 2.220446049250313e-16, 1.150602885610458e+05, 1.889829306822373e-01, 3.274889388047617e-03, 0.000000000000000e+00
84, 3.784979252510000e-01, 2.220446049250313e-16, 1.150601526320730e+05, 1.889405155754390e-01, 3.261520027430628e-03, 0.000000000000000e+00
85, 3.900256382880000e-01, 2.220446049250313e-16, 1.150600184422165e+05, 1.888986431403079e-01, 3.248252684604924e-03, 0.000000000000000e+00
86, 4.019253126140000e-01, 2.220446049250313e-16, 1.150598850495295e+05, 1.888570194529654e-01, 3.235077087008118e-03, 0.000000000000000e+00
87, 4.142179315450000e-01, 2.220446049250313e-16, 1.150597527173162e+05, 1.888157266745210e-01, 3.221983649473467e-03, 0.000000000000000e+00
88, 4.269260622260000e-01, 2.220446049250313e-16, 1.150596228318004e+05, 1.887751973604889e-01, 3.208958734687277e-03, 0.000000000000000e+00
89, 4.400740085990000e-01, 2.220446049250313e-16, 1.150594956295693e+05, 1.887355053352634e-01, 3.195957151169371e-03, 0.000000000000000e+00
90, 4.536879824320000e-01, 2.220446049250313e-16, 1.150593687413338e+05, 1.886959112888354e-01, 3.182884233017332e-03, 0.000000000000000e+00
91, 4.677962949600000e-01, 2.220446049250313e-16, 1.150592404418037e+05, 1.886558768638244e-01, 3.169656367836958e-03, 0.000000000000000e+00
92, 4.824295720830000e-01, 2.220446049250313e-16, 1.150591111349183e+05, 1.886155281049069e-01, 3.156227644661820e-03, 0.000000000000000e+00
93, 4.976209965680000e-01, 2.220446049250313e-16, 1.150589810345435e+05, 1.885749317465412e-01, 3.142574316982345e-03, 0.000000000000000e+00
94, 5.134065813120000e-01, 2.220446049250313e-16, 1.150588493087159e+05, 1.885338281839146e-01, 3.128707592367420e-03, 0.000000000000000e+00
95, 5.298254783930000e-01, 2.220446049250313e-16, 1.150587161978254e+05, 1.884922924280178e-01, 3.114665115227103e-03, 0.000000000000000e+00
96, 5.469203295140000e-01, 2.220446049250313e-16, 1.150585827344655e+05, 1.884506466879678e-01, 3.100479620534562e-03, 0.000000000000000e+00
97, 5.647376644470000e-01, 2.220446049250313e-16, 1.150584495768220e+05, 1.884090963433219e-01, 3.086176543211288e-03, 0.000000000000000e+00
98, 5.833283553420000e-01, 2.220446049250313e-16, 1.150583164245860e+05, 1.883675476860139e-01, 3.071770621287343e-03, 0.000000000000000e+00
99, 6.027481362320000e-01, 2.220446049250313e-16, 1.150581826845132e+05, 1.883258156008423e-01, 3.057265942495887e-03, 0.000000000000000e+00
100, 6.230581989500000e-01, 2.220446049250313e-16, 1.150580499851973e+05, 1.882844082721368e-01, 3.042667129145401e-03, 0.000000000000000e+00
101, 6.443258788700000e-01, 2.220446049250313e-16, 1.150579185961424e+05, 1.882434097956485e-01, 3.027970679374079e-03, 0.000000000000000e+00
102, 6.666254466970000e-01, 2.220446049250313e-16, 1.150577870775713e+05, 1.882023709050847e-01, 3.013163761546283e-03, 0.000000000000000e+00
103, 6.900390259370000e-01, 2.220446049250313e-16, 1.150576559288227e+05, 1.881614474134821e-01, 2.998226504725780e-03, 0.000000000000000e+00
104, 7.146576599530000e-01, 2.220446049250313e-16, 1.150575259597108e+05, 1.881208920142376e-01, 2.983140369984542e-03, 0.000000000000000e+00
105, 7.405825578610000e-01, 2.220446049250313e-16, 1.150573967953944e+05, 1.880805877423677e-01, 2.967902838490243e-03, 0.000000000000000e+00
106, 7.679265552350000e-01, 2.220446049250313e-16, 1.150572684840040e+05, 1.880405496164818e-01, 2.952516826651730e-03, 0.000000000000000e+00
107, 7.968158341210000e-01, 2.220446049250313e-16, 1.150571416700729e+05, 1.880009787558810e-01, 2.936971745413176e-03, 0.000000000000000e+00
108, 8.273919576770000e-01, 2.220446049250313e-16, 1.150570162073939e+05, 1.879618295383411e-01, 2.921251271002709e-03, 0.000000000000000e+00
109, 8.598142887360000e-01, 2.220446049250313e-16, 1.150568915473691e+05, 1.879229307800073e-01, 2.905344051025883e-03, 0.000000000000000e+00
110, 8.942628795040000e-01, 2.220446049250313e-16, 1.150567683850617e+05, 1.878844993675073e-01, 2.889234613009134e-03, 0.000000000000000e+00
111, 9.309419431120000e-01, 2.220446049250313e-16, 1.150566493685962e+05, 1.878473616183642e-01, 2.872909425846671e-03, 0.000000000000000e+00
112, 9.700840484090000e-01, 2.220446049250313e-16, 1.150565383919362e+05, 1.878127326000814e-01, 2.856348155267105e-03, 0.000000000000000e+00
113, 1.011955220140000e+00, 2.220446049250313e-16, 1.150564342378783e+05, 1.877802324980073e-01, 2.839471845867719e-03, 0.000000000000000e+00
114, 1.054913688830000e+00, 2.220446049250313e-16, 1.150563291359285e+05, 1.877474366169538e-01, 2.822900466286994e-03, 0.000000000000000e+00
115, 1.097872157520000e+00, 2.220446049250313e-16, 1.150562288156761e+05, 1.877161328107799e-01, 2.807012852732622e-03, 0.000000000000000e+00
116, 1.140830626210000e+00, 2.220446049250313e-16, 1.150561367734263e+05, 1.876874120621823e-01, 2.791785798096828e-03, 0.000000000000000e+00
117, 1.183789094900000e+00, 2.220446049250313e-16, 1.150560530740999e+05, 1.876612946289553e-01, 2.777196286061226e-03, 0.000000000000000e+00
118, 1.226747563590000e+00, 2.220446049250313e-16, 1.150559777634753e+05, 1.876377947957670e-01, 2.763219996045579e-03, 0.000000000000000e+00
119, 1.269706032280000e+00, 2.220446049250313e-16, 1.150559087966623e+05, 1.876162744776418e-01, 2.749824916954388e-03, 0.000000000000000e+00
120, 1.312664500970000e+00, 2.220446049250313e-16, 1.150558458177885e+05, 1.875966226285830e-01, 2.736967173342255e-03, 0.000000000000000e+00
121, 1.355622969660000e+00, 2.220446049250313e-16, 1.150557900853819e+05, 1.875792319580560e-01, 2.724572485511282e-03, 0.000000000000000e+00
122, 1.398581438350000e+00, 2.220446049250313e-16, 1.150557409565896e+05, 1.875639018711082e-01, 2.712620558828691e-03, 0.000000000000000e+00
123, 1.441539907040000e+00, 2.220446049250313e-16, 1.150556966492509e+05, 1.875500762645185e-01, 2.701113446553018e-03, 0.000000000000000e+00
124, 1.484498375720000e+00, 2.220446049250313e-16, 1.150556566655683e+05, 1.875375998061892e-01, 2.690025200297687e-03, 0.000000000000000e+00
125, 1.527456844410000e+00, 2.220446049250313e-16, 1.150556221506080e+05, 1.875268298010871e-01, 2.679329208097301e-03, 0.000000000000000e+00
126, 1.570415313100000e+00, 2.220446049250313e-16, 1.150555931864015e+05, 1.875177918462970e-01, 2.669003636350783e-03, 0.000000000000000e+00
127, 1.613373781790000e+00, 2.220446049250313e-16, 1.150555681343605e+05, 1.875099746387356e-01, 2.659025507666186e-03, 0.000000000000000e+00
128, 1.656332250480000e+00, 2.220446049250313e-16, 1.150555462914613e+05, 1.875031588077694e-01, 2.649372604997719e-03, 0.000000000000000e+00
129, 1.699290719170000e+00, 2.220446049250313e-16, 1.150555283641389e+05, 1.874975647884863e-01, 2.640026057302025e-03, 0.000000000000000e+00
130, 1.742249187860000e+00, 2.220446049250313e-16, 1.150555186232424e+05, 1.874945252513317e-01, 2.630950852670270e-03, 0.000000000000000e+00
131, 1.785207656550000e+00, 2.220446049250313e-16, 1.150555177373693e+05, 1.874942488245826e-01, 2.622130693995476e-03, 0.000000000000000e+00
132, 1.828166125240000e+00, 2.220446049250313e-16, 1.150555368210246e+05, 1.875002036645441e-01, 2.613537389821418e-03, 0.000000000000000e+00
133, 1.871124593930000e+00, 2.220446049250313e-16, 1.150555144375285e+05, 1.874932191463883e-01, 2.605036277757851e-03, 0.000000000000000e+00
134, 1.914083062620000e+00, 2.220446049250313e-16, 1.150556429089518e+05, 1.875333072087533e-01, 2.596790111868793e-03, 0.000000000000000e+00
135, 1.957041531310000e+00, 2.220446049250313e-16, 1.150546804992950e+05, 1.872329981022208e-01, 2.587591036220869e-03, 0.000000000000000e+00
136, 2.000000000000000e+00, 2.220446049250313e-16, 1.150646557294967e+05, 1.903456564677447e-01, 2.583871977107721e-03, 0.000000000000000e+00
