"Global_Index", "x_coord", "y_coord", "Pressure", "Pressure_Coefficient", "Skin_Friction_Coefficient_X", "Skin_Friction_Coefficient_Y", "Heat_Flux"
1143, 2.344165146350860e-01, -5.327359586954120e-02, 3.674160548014288e+04, -1.412408205956055e-01, 3.618707028907328e-03, -2.621433444348765e-04, -6.948455396921759e+02
1117, 2.482267022132870e-01, -5.422909930348400e-02, 3.639811255947266e+04, -1.650511913866438e-01, 3.653612699756143e-03, -2.370221653658442e-04, -7.054659513534389e+02
1091, 2.625653147697450e-01, -5.509970337152480e-02, 3.606372187070768e+04, -1.882306102609245e-01, 3.671962317242472e-03, -2.075297495865992e-04, -7.106713709389481e+02
1065, 2.774220108985900e-01, -5.587914213538170e-02, 3.575726414679344e+04, -2.094737614267127e-01, 3.681082562398718e-03, -1.783886885026312e-04, -7.129796345894202e+02
1039, 2.927811741828920e-01, -5.656399205327030e-02, 3.543217931070426e+04, -2.320081137234776e-01, 3.699846163791082e-03, -1.485659005016477e-04, -7.212463839294056e+02
1013, 3.086399734020230e-01, -5.713268741965290e-02, 3.507445147327094e+04, -2.568052258006178e-01, 3.732316662426747e-03, -1.139506697029651e-04, -7.359542539008025e+02
987, 3.249974250793460e-01, -5.754758045077320e-02, 3.471932407553301e+04, -2.814220796260128e-01, 3.747914153783739e-03, -7.154351078826813e-05, -7.471794007794714e+02
961, 3.418258726596830e-01, -5.776616930961610e-02, 3.442825842462353e+04, -3.015982773163965e-01, 3.748865720018517e-03, -2.640154848490781e-05, -7.547061408642428e+02
935, 3.590588271617890e-01, -5.778745934367180e-02, 3.418991007761611e+04, -3.181201972110031e-01, 3.724621362739717e-03, 2.389079886059228e-05, -7.567319987509431e+02
909, 3.766198158264160e-01, -5.754299089312550e-02, 3.403863951473521e+04, -3.286060266858454e-01, 3.671390132485738e-03, 7.837477316390413e-05, -7.470038671580309e+02
883, 3.944020271301270e-01, -5.703297257423400e-02, 3.403079371772632e+04, -3.291498845783704e-01, 3.596998417156743e-03, 1.324799877982080e-04, -7.233839419035758e+02
857, 4.122794568538670e-01, -5.622962117195130e-02, 3.417680613218954e+04, -3.190285414028525e-01, 3.508214293736621e-03, 1.823928265240275e-04, -6.872745817226220e+02
831, 4.301885962486270e-01, -5.517242103815080e-02, 3.445708839119795e+04, -2.995998309068152e-01, 3.416670561114054e-03, 2.242607008227870e-04, -6.469168452229047e+02
805, 4.480717480182650e-01, -5.388031527400020e-02, 3.479842797955810e+04, -2.759387256105038e-01, 3.310331718448046e-03, 2.606350991318936e-04, -6.047797319044575e+02
779, 4.658685922622680e-01, -5.236319825053220e-02, 3.519779511373857e+04, -2.482552451823264e-01, 3.198066521365957e-03, 2.905590912565046e-04, -5.617676391196178e+02
753, 4.835794866085050e-01, -5.065427348017690e-02, 3.565164460434682e+04, -2.167951363870086e-01, 3.085787281701300e-03, 3.122620526110990e-04, -5.206303420745245e+02
727, 5.012295246124270e-01, -4.878489673137660e-02, 3.611564923288593e+04, -1.846310899411102e-01, 2.977791846436109e-03, 3.283548350059969e-04, -4.836624374772763e+02
701, 5.188096761703490e-01, -4.676951467990880e-02, 3.657701000761478e+04, -1.526503111428149e-01, 2.874475491432064e-03, 3.404703231898327e-04, -4.504678796164265e+02
675, 5.363336801528930e-01, -4.462694749236110e-02, 3.704435604684286e+04, -1.202546435406072e-01, 2.773861128059858e-03, 3.481830668092995e-04, -4.187539579855831e+02
649, 5.538190603256230e-01, -4.237503558397290e-02, 3.751758801263009e+04, -8.745097307898508e-02, 2.673791490411439e-03, 3.506332842570901e-04, -3.888965235678850e+02
623, 5.713157057762150e-01, -4.003950580954550e-02, 3.797113798347725e+04, -5.601162650653058e-02, 2.584184283249177e-03, 3.505570713310996e-04, -3.622808052312723e+02
597, 5.888153314590450e-01, -3.762762248516080e-02, 3.841415716888585e+04, -2.530225685914323e-02, 2.507795623501040e-03, 3.436472276907927e-04, -3.433655737671269e+02
571, 6.065399646759030e-01, -3.521266952157020e-02, 3.879630689665575e+04, 1.187740949666623e-03, 2.451880836324670e-03, 3.369742996716935e-04, -3.337173934192228e+02
545, 6.243042349815370e-01, -3.275020420551300e-02, 3.908536196771175e+04, 2.122456851351931e-02, 2.389448741906004e-03, 3.421609158656151e-04, -3.168914901084402e+02
519, 6.418011188507080e-01, -3.016339242458340e-02, 3.949406028157956e+04, 4.955487114647411e-02, 2.310327964464395e-03, 3.392083543931486e-04, -2.907017176473730e+02
493, 6.594728827476500e-01, -2.758665196597580e-02, 3.995833796306718e+04, 8.173784517881887e-02, 2.236661354970764e-03, 3.236199965190348e-04, -2.701189647589159e+02
467, 6.773055195808410e-01, -2.502630092203620e-02, 4.029749647987434e+04, 1.052477621411842e-01, 2.193791640182610e-03, 3.144494970893480e-04, -2.547102795890538e+02
441, 6.951977014541630e-01, -2.246599644422530e-02, 4.061950142228106e+04, 1.275686212153424e-01, 2.150229260186603e-03, 3.045976202674733e-04, -2.409317076356976e+02
415, 7.132214307785030e-01, -1.993851736187930e-02, 4.094660364272705e+04, 1.502428153157463e-01, 2.104594815769856e-03, 2.920285708814053e-04, -2.284739437784309e+02
389, 7.313483357429500e-01, -1.744982041418550e-02, 4.124385084459042e+04, 1.708475080679459e-01, 2.062745184715374e-03, 2.800223054555506e-04, -2.167795105853679e+02
363, 7.495508193969730e-01, -1.500672101974490e-02, 4.153812423199852e+04, 1.912460608370981e-01, 2.020314444298622e-03, 2.658799219143133e-04, -2.054932542778696e+02
337, 7.678796052932740e-01, -1.264218706637620e-02, 4.181463654517000e+04, 2.104134448171071e-01, 1.981934630751757e-03, 2.500366960610777e-04, -1.952049688138134e+02
311, 7.863141298294070e-01, -1.036873925477270e-02, 4.207544814507468e+04, 2.284924808805500e-01, 1.949977757298557e-03, 2.314973801961608e-04, -1.874571682874559e+02
1169, 2.210974693298340e-01, -5.226382613182070e-02, 3.703305566938651e+04, -1.210379673331020e-01, 3.603504709581245e-03, -2.831266364591917e-04, -6.873427706187210e+02
2313, 1.973092555999760e-03, 5.815388169139620e-03, 3.588670769570575e+04, -2.005009450726050e-01, 4.005449343127718e-03, 5.863590224255058e-03, -2.291914692265979e+03
2339, 2.858132123947140e-03, 6.970721762627360e-03, 3.358206070429033e+04, -3.602553274947586e-01, 4.274360034260897e-03, 5.013501804152904e-03, -1.952104636553431e+03
2287, 1.276999711990360e-03, 4.656096920371060e-03, 3.868628665547233e+04, -6.438683292164318e-03, 3.351523506872014e-03, 6.271294950803692e-03, -2.264276098442985e+03
2261, 7.326900959014890e-04, 3.494375152513380e-03, 4.166444965225961e+04, 2.000027335827299e-01, 2.468719503563265e-03, 6.160522228029784e-03, -1.967234225859296e+03
2235, 3.451704978942870e-04, 2.330780262127520e-03, 4.469271826573565e+04, 4.099173903420016e-01, 1.513947853577256e-03, 5.617531733661362e-03, -1.550578250829028e+03
2209, 1.051127910614010e-04, 1.165737863630060e-03, 4.697674818296851e+04, 5.682426307022008e-01, 7.417990491756024e-04, 5.009033485860011e-03, -1.223689088794915e+03
2183, 0.000000000000000e+00, 0.000000000000000e+00, 5.039497417621599e+04, 8.051884990129158e-01, -1.091218150304227e-04, 4.076950579366283e-03, -7.969362552997129e+02
2157, 1.753866672515870e-04, -1.459796912968160e-03, 5.303018659157502e+04, 9.878571391712598e-01, -5.130711416361860e-04, 2.776983684779349e-03, -3.179094029139787e+02
2131, 5.391836166381840e-04, -2.918316749855880e-03, 5.447006006113350e+04, 1.087666827054993e+00, -4.984430361871323e-04, 1.534896222020131e-03, -3.521867759267379e+01
2105, 1.121968030929570e-03, -4.374681971967220e-03, 5.515579401838285e+04, 1.135200790067259e+00, -2.289520719950203e-04, 4.850316741487732e-04, 7.279293412703207e+01
2079, 1.912891864776610e-03, -5.828497931361200e-03, 5.512232422245242e+04, 1.132880718230410e+00, 2.228353496354816e-04, -3.408512494068693e-04, 6.464847205689910e+01
2053, 3.018766641616820e-03, -7.276044692844150e-03, 5.447303378599345e+04, 1.087872960827438e+00, 7.790928185794207e-04, -8.801042852505138e-04, -5.078044277722967e+00
2027, 4.468053579330440e-03, -8.714943192899231e-03, 5.351874142034611e+04, 1.021722965582163e+00, 1.292267325029851e-03, -1.174678371017769e-03, -8.402245999487043e+01
2001, 6.177186965942380e-03, -1.014706678688530e-02, 5.259042161369993e+04, 9.573733458992238e-01, 1.677070186626192e-03, -1.335024747421651e-03, -1.475790469359272e+02
1975, 8.062899112701419e-03, -1.157660502940420e-02, 5.159601899246581e+04, 8.884429729501494e-01, 1.981478539021682e-03, -1.416406771008498e-03, -1.980314319078961e+02
1949, 1.017087697982790e-02, -1.300184894353150e-02, 5.049744095778187e+04, 8.122913297148924e-01, 2.228672371794261e-03, -1.407292831927459e-03, -2.296250269267037e+02
1923, 1.256430149078370e-02, -1.441901084035630e-02, 4.947061659427139e+04, 7.411135343042849e-01, 2.388515907073794e-03, -1.329061835002221e-03, -2.342782911480477e+02
1897, 1.524919271469120e-02, -1.582761853933330e-02, 4.859060793357310e+04, 6.801127647115155e-01, 2.480682560987596e-03, -1.235850976631408e-03, -2.217640104939262e+02
1871, 1.820489764213560e-02, -1.722909882664680e-02, 4.779026789833394e+04, 6.246344947059080e-01, 2.528344314477033e-03, -1.142424933665291e-03, -2.034374910842459e+02
1845, 2.143678069114690e-02, -1.862346194684510e-02, 4.705835894852443e+04, 5.738997562832333e-01, 2.552009183784947e-03, -1.061633623197358e-03, -1.862576200809918e+02
1819, 2.490270137786870e-02, -2.001537941396240e-02, 4.636895674311897e+04, 5.261115162728276e-01, 2.563932223552389e-03, -9.932447614476832e-04, -1.745294172219562e+02
1793, 2.861636877059940e-02, -2.140477113425730e-02, 4.565575580894132e+04, 4.766735870772253e-01, 2.557536155290965e-03, -9.129057345757041e-04, -1.615949602403481e+02
1767, 3.265759348869320e-02, -2.278346754610540e-02, 4.504763280968912e+04, 4.345194894891271e-01, 2.531874151824766e-03, -8.332058435549119e-04, -1.413512015933535e+02
1741, 3.698146343231200e-02, -2.415761165320870e-02, 4.454643203794799e+04, 3.997770668720146e-01, 2.510011145172848e-03, -7.739401126385856e-04, -1.232841577894501e+02
1715, 4.156750440597530e-02, -2.553076110780240e-02, 4.403342658801968e+04, 3.642163631556666e-01, 2.501456524819987e-03, -7.273689001501101e-04, -1.153389864968729e+02
1689, 4.642483592033390e-02, -2.690353803336620e-02, 4.349709119250294e+04, 3.270384655422469e-01, 2.503698744904912e-03, -6.821787181438896e-04, -1.120326025720990e+02
1663, 5.161416530609130e-02, -2.826815843582150e-02, 4.301928388223569e+04, 2.939176396401187e-01, 2.517734665326716e-03, -6.416516129754899e-04, -1.110670952674326e+02
1637, 5.711802840232850e-02, -2.962872758507730e-02, 4.260229283564246e+04, 2.650124982574220e-01, 2.561612366355241e-03, -6.103001251148731e-04, -1.198571996174978e+02
1611, 6.298619508743290e-02, -3.097752667963500e-02, 4.223717213859283e+04, 2.397029251713999e-01, 2.655825166780383e-03, -5.934719399811061e-04, -1.527117075067512e+02
1585, 6.917616724967959e-02, -3.232324495911600e-02, 4.192262531512936e+04, 2.178990507765648e-01, 2.814836463249139e-03, -5.997333774390477e-04, -2.314241208335274e+02
1559, 7.564741373062130e-02, -3.367514535784720e-02, 4.154478092727154e+04, 1.917074921305999e-01, 3.015479858631944e-03, -6.120181827333202e-04, -3.472706904249343e+02
1533, 8.247101306915280e-02, -3.502155095338820e-02, 4.114526070454731e+04, 1.640133998534689e-01, 3.200943213951157e-03, -6.153701947055437e-04, -4.599643631305957e+02
1507, 8.964005112648010e-02, -3.636518120765690e-02, 4.077660016206739e+04, 1.384584504374963e-01, 3.333118401079675e-03, -6.056961046865190e-04, -5.426368377219540e+02
1481, 9.719923138618471e-02, -3.769797086715700e-02, 4.042140039166912e+04, 1.138365798569541e-01, 3.416620625886639e-03, -5.831632214615899e-04, -5.923027313833081e+02
1455, 1.051684617996220e-01, -3.901563584804530e-02, 4.012012777409291e+04, 9.295285183228454e-02, 3.467905457014672e-03, -5.605281424859454e-04, -6.230923977869109e+02
1429, 1.134960949420930e-01, -4.033208265900610e-02, 3.980489663436401e+04, 7.110154174652838e-02, 3.505976560593421e-03, -5.343160598423774e-04, -6.440660816525397e+02
1403, 1.222792565822600e-01, -4.162334650754930e-02, 3.949802218416453e+04, 4.982950379218336e-02, 3.522087768613990e-03, -5.037994262456931e-04, -6.529034458602373e+02
1377, 1.314679384231570e-01, -4.290277510881420e-02, 3.923930609152451e+04, 3.189572488533447e-02, 3.528141425153673e-03, -4.799004166193390e-04, -6.602365966579014e+02
1351, 1.410477757453920e-01, -4.417625442147250e-02, 3.892862172688365e+04, 1.035958985628303e-02, 3.552580550543867e-03, -4.541152198192900e-04, -6.697154837451174e+02
1325, 1.511152982711790e-01, -4.541423544287680e-02, 3.863842118010364e+04, -9.756640222379875e-03, 3.562439900955399e-03, -4.255443941108633e-04, -6.731627767870425e+02
1299, 1.616173982620240e-01, -4.663335904479030e-02, 3.838907420944669e+04, -2.704096682620028e-02, 3.563416107728734e-03, -3.988219863696200e-04, -6.734290349567971e+02
1273, 1.725961565971370e-01, -4.781839996576310e-02, 3.813885605468204e+04, -4.438568249594720e-02, 3.563254424997702e-03, -3.730676466405754e-04, -6.729464403554097e+02
1247, 1.840233504772190e-01, -4.897923022508620e-02, 3.789378374114746e+04, -6.137369681801887e-02, 3.562892417374095e-03, -3.520368816477751e-04, -6.749839403715354e+02
1221, 1.958884000778200e-01, -5.011982470750810e-02, 3.760575678013034e+04, -8.133925746553451e-02, 3.581987937618082e-03, -3.309771866246517e-04, -6.816763207843434e+02
1195, 2.082438766956330e-01, -5.121721699833870e-02, 3.730366977614740e+04, -1.022794374318447e-01, 3.598625366965663e-03, -3.060588169761736e-04, -6.862333424669308e+02
2365, 3.939032554626460e-03, 8.121287450194361e-03, 3.232382990497871e+04, -4.474738408016962e-01, 4.271188335023593e-03, 4.215888452271926e-03, -1.461494115214679e+03
3067, 9.501701593399051e-02, 3.806984424591060e-02, 2.494669054021858e+04, -9.588451474049722e-01, 4.976625600921664e-03, 9.320124862546768e-04, -1.510193274176001e+03
3041, 8.928063511848450e-02, 3.696753084659580e-02, 2.491960940708114e+04, -9.607223675240526e-01, 4.970633726206721e-03, 9.726298822415042e-04, -1.532155076022998e+03
3015, 8.375442028045650e-02, 3.586603328585620e-02, 2.483160713082994e+04, -9.668225422348096e-01, 4.987322578935495e-03, 1.012650304388673e-03, -1.553985704788682e+03
2989, 7.843562960624691e-02, 3.476550802588460e-02, 2.471920053643400e+04, -9.746143846014672e-01, 4.995447097915008e-03, 1.053687214416033e-03, -1.576702898047690e+03
2963, 7.332068681716920e-02, 3.366525098681450e-02, 2.457118106804234e+04, -9.848748534921246e-01, 4.992556855055782e-03, 1.091228348647931e-03, -1.581485067204776e+03
2937, 6.838649511337280e-02, 3.256905823946000e-02, 2.442740988895113e+04, -9.948408378755788e-01, 4.894955976055796e-03, 1.111779790148218e-03, -1.527621318531593e+03
2911, 6.365954875946039e-02, 3.147093951702120e-02, 2.425697569674303e+04, -1.006655058978092e+00, 4.702145039226751e-03, 1.108479862339075e-03, -1.379343171807093e+03
2885, 5.909299850463870e-02, 3.037821687757970e-02, 2.401944826131425e+04, -1.023120074616751e+00, 4.441136219526219e-03, 1.081771378191841e-03, -1.122768675368186e+03
2859, 5.469727516174320e-02, 2.928791008889680e-02, 2.382541189974183e+04, -1.036570359725884e+00, 4.041514825552535e-03, 1.025440695947070e-03, -7.683467193691483e+02
2833, 5.049252510070800e-02, 2.819604612886910e-02, 2.366989385508815e+04, -1.047350617731424e+00, 3.593936001223038e-03, 9.519340522187538e-04, -4.391192763190066e+02
2807, 4.645630717277530e-02, 2.710510604083540e-02, 2.352825889219101e+04, -1.057168523081484e+00, 3.251299067735487e-03, 8.976848999975588e-04, -2.581848351321918e+02
2781, 4.259017109870910e-02, 2.601420320570470e-02, 2.346440306133755e+04, -1.061594905455898e+00, 3.085382274146264e-03, 8.941803194264315e-04, -1.910092503995405e+02
2755, 3.891497850418090e-02, 2.491953969001770e-02, 2.335883140786327e+04, -1.068912960830492e+00, 3.049151917338727e-03, 9.234336475729356e-04, -1.763135288420928e+02
2729, 3.537228703498840e-02, 2.382827177643780e-02, 2.318469834252245e+04, -1.080983581804733e+00, 3.132632914104680e-03, 9.884390952745123e-04, -1.995837882151972e+02
2703, 3.199326992034910e-02, 2.273553423583510e-02, 2.312705347037744e+04, -1.084979430619598e+00, 3.294859350780398e-03, 1.097107199588089e-03, -2.408027146723901e+02
2677, 2.879580855369570e-02, 2.163846604526040e-02, 2.315675468563577e+04, -1.082920590667772e+00, 3.474948949214842e-03, 1.226114823840752e-03, -2.842904844711862e+02
2651, 2.576607465744020e-02, 2.053830586373810e-02, 2.322640298665140e+04, -1.078092683679435e+00, 3.667106937204535e-03, 1.373505560695755e-03, -3.482277744059256e+02
2625, 2.291005849838260e-02, 1.943397335708140e-02, 2.339360197155372e+04, -1.066502721887379e+00, 3.883373940118625e-03, 1.555540692230001e-03, -4.299538109798364e+02
2599, 2.023851871490480e-02, 1.832416467368600e-02, 2.366442247488178e+04, -1.047729884911657e+00, 4.110431261137766e-03, 1.771018288970206e-03, -5.304118697527607e+02
2573, 1.774638891220090e-02, 1.720915734767910e-02, 2.398548893343284e+04, -1.025474080012534e+00, 4.338000984959276e-03, 2.011928033652200e-03, -6.850109279427522e+02
2547, 1.542121171951290e-02, 1.608993858098980e-02, 2.448133258308717e+04, -9.911030043885724e-01, 4.581104791533589e-03, 2.305444797447247e-03, -8.951299205555293e+02
2521, 1.328635215759280e-02, 1.496464014053340e-02, 2.533923885419102e+04, -9.316343365071996e-01, 4.812740573075805e-03, 2.664426883119601e-03, -1.104762950435618e+03
2495, 1.134461164474490e-02, 1.383305341005330e-02, 2.652763572047812e+04, -8.492565978976445e-01, 4.923035763310238e-03, 3.010558158430080e-03, -1.266597611295697e+03
2469, 9.577721357345579e-03, 1.269672065973280e-02, 2.806137460062416e+04, -7.429403123635664e-01, 4.860827147962882e-03, 3.294062345954558e-03, -1.334429216975771e+03
2443, 7.984459400177000e-03, 1.155596133321520e-02, 2.989676928782103e+04, -6.157137367334486e-01, 4.570888349433929e-03, 3.437387503145058e-03, -1.261581020493512e+03
2417, 6.539613008499150e-03, 1.041201036423440e-02, 3.133368919123744e+04, -5.161087852526115e-01, 4.231826346028619e-03, 3.459417685572063e-03, -1.125485238519788e+03
2391, 5.185037851333620e-03, 9.267500601708891e-03, 3.188563091375276e+04, -4.778490824252818e-01, 4.231807736205117e-03, 3.727590482617511e-03, -1.130229413575745e+03
4627, 8.470668792724610e-01, 2.849674224853520e-02, 3.715203879073505e+04, -1.127902508105721e-01, 2.042429243475581e-03, -3.285269363980864e-04, -2.457572881123425e+02
4653, 8.601957559585570e-01, 2.635983005166050e-02, 3.748971511361936e+04, -8.938307712110519e-02, 1.972802971645897e-03, -3.257334236546498e-04, -2.304657142662593e+02
4601, 8.336892127990720e-01, 3.062343597412110e-02, 3.679048349891191e+04, -1.378526758031269e-01, 2.112114603535034e-03, -3.335654528495254e-04, -2.613997218768296e+02
4575, 8.201366662979130e-01, 3.274982050061230e-02, 3.641701957012273e+04, -1.637405881484461e-01, 2.187040202711646e-03, -3.376306948688301e-04, -2.795695705359163e+02
4549, 8.063289523124690e-01, 3.484725579619410e-02, 3.606460138998317e+04, -1.881696434147181e-01, 2.256084793724977e-03, -3.367363447392019e-04, -2.981632631136824e+02
4523, 7.922744154930110e-01, 3.690845519304280e-02, 3.571066192039590e+04, -2.127041519921090e-01, 2.316527764046484e-03, -3.353958359104738e-04, -3.163794789732623e+02
4497, 7.780403494834900e-01, 3.894298896193500e-02, 3.531303147369575e+04, -2.402672480677529e-01, 2.384778178044038e-03, -3.372673651260280e-04, -3.373164838529617e+02
4471, 7.636658549308780e-01, 4.095442220568660e-02, 3.495796216621186e+04, -2.648800751711843e-01, 2.445988331164436e-03, -3.312572072946812e-04, -3.596945029106138e+02
4445, 7.489700317382810e-01, 4.287994652986530e-02, 3.466991933099474e+04, -2.848467361924347e-01, 2.484778008009072e-03, -3.198829434665420e-04, -3.768204433490246e+02
4419, 7.341139912605290e-01, 4.475884139537810e-02, 3.425389417632052e+04, -3.136849235177061e-01, 2.541832826489643e-03, -3.243682208107735e-04, -3.933868053737933e+02
